Turn,System llh,MLM llh,USR DLcontext,USR DLfact,Overall Human Rating,Interesting,Engaging,Specific,Relevant,Correct,Semantically Appropriate,Understandable,Fluent,GROUP A - Total nodes,GROUP A - Total edges,GROUP A - Average degree,GROUP A - Average degree centrality,GROUP A - Average closeness,GROUP A - Average degree connectivity,GROUP A - Average assortativity,GROUP A - Average node connectivity,GROUP A - Number of components,GROUP A - Number of strong components,GROUP A - Centrality entropy,GROUP A - Closeness entropy,GROUP A - Sparseness,GROUP B - Total classes,GROUP B - Total properties,GROUP B - Average population,GROUP B - Attribute richness,GROUP B - Relationship richness,GROUP B - Total axioms,GROUP C - Total triples,GROUP C - Total world instances,GROUP C - Total claims,GROUP C - Total perspectives,GROUP C - Total mentions,GROUP C - Total conflicts,GROUP C - Total sources,GROUP C - Total interactions,GROUP C - Total utterances,GROUP C - Ratio claim to triples,GROUP C - Ratio perspectives to triples,GROUP C - Ratio conflicts to triples,GROUP C - Ratio perspectives to claims,GROUP C - Ratio mentions to claims,GROUP C - Ratio conflicts to claims,GROUP C - Average perspectives per claim,GROUP C - Average mentions per claim,GROUP C - Average turns per interaction,GROUP C - Average claims per source,GROUP C - Average perspectives per source
0.0,0.46513201718890024,0.8529487568923392,0.5698048,0.83032805,,,,,,,,,,2870.0,7906.0,5.509407665505226,0.0019203233410614244,0.0017210902516714033,0.8596768057594533,-0.11746526166007991,0.0,3.0,-0.11746526166007991,10.048989987248374,8.553952455944422,0.000958613070451262,294.0,267.0,4.442176870748299,0.14232209737827714,0.3037542662116041,2769.0,7906.0,0.0,0.0,0.0,0.0,0.0,0.0,0.0,0.0,0.0,0.0,0.0,0.0,0.0,0.0,0.0,0.0,0.0,0.0,0.0
1.0,0.0,0.2894281744971314,0.7674007399999999,0.8214908,,,,,,,,,,2870.0,7906.0,5.509407665505226,0.0019203233410614244,0.0017210902516714033,0.8596768057594533,-0.11746526166007991,0.0,3.0,-0.11746526166007991,10.048989987248374,8.553952455944422,0.000958613070451262,294.0,267.0,4.442176870748299,0.14232209737827714,0.3037542662116041,2769.0,7906.0,0.0,0.0,0.0,0.0,0.0,0.0,,0.0,0.0,0.0,0.0,0.0,0.0,0.0,0.0,0.0,0.0,0.0,0.0
2.0,0.23395006209741262,0.6062272474113154,0.9960615599999999,0.79320186,5.0,5.0,5.0,5.0,5.0,5.0,5.0,5.0,5.0,2870.0,7906.0,5.509407665505226,0.0019203233410614244,0.0017210902516714033,0.8596768057594533,-0.11746526166007991,0.0,3.0,-0.11746526166007991,10.048989987248374,8.553952455944422,0.000958613070451262,294.0,267.0,4.442176870748299,0.14232209737827714,0.3037542662116041,2769.0,7906.0,0.0,0.0,0.0,0.0,0.0,0.0,,0.0,0.0,0.0,0.0,0.0,0.0,0.0,0.0,0.0,0.0,0.0,0.0
3.0,0.0,0.09042980521944893,0.8802071000000001,0.7854635,5.0,5.0,5.0,5.0,5.0,5.0,5.0,5.0,5.0,2929.0,8021.0,5.476954592010925,0.0018705446010966274,0.0016962879805778137,0.8700331834873309,-0.11521514267001974,0.0,3.0,-0.11521514267001974,10.08715339613991,8.631596383954308,0.0009337873545539647,294.0,267.0,4.598639455782313,0.14232209737827714,0.3037542662116041,2840.0,8021.0,5.0,3.0,1.0,1.0,0.0,2.0,0.0,1.0,0.00037401820221917467,0.00012467273407305821,0.0,0.3333333333333333,0.3333333333333333,0.0,1.0,1.0,1.0,1.0,1.0
4.0,0.567782169586973,0.6512246564020431,0.9121886,0.7285426,4.666666666666667,4.666666666666667,5.0,4.0,4.333333333333333,5.0,5.0,5.0,5.0,2929.0,8021.0,5.476954592010925,0.0018705446010966274,0.0016962879805778137,0.8700331834873309,-0.11521514267001974,0.0,3.0,-0.11521514267001974,10.08715339613991,8.631596383954308,0.0009337873545539647,294.0,267.0,4.598639455782313,0.14232209737827714,0.3037542662116041,2840.0,8021.0,5.0,3.0,1.0,1.0,0.0,2.0,,1.0,0.00037401820221917467,0.00012467273407305821,0.0,0.3333333333333333,0.3333333333333333,0.0,1.0,1.0,1.0,1.0,1.0
5.0,0.08513354510045927,0.2809133343265714,0.34643862,0.6515251,4.666666666666667,4.666666666666667,5.0,4.0,4.333333333333333,5.0,5.0,5.0,5.0,2952.0,8072.0,5.468834688346884,0.0018532140590806112,0.0016931925814939544,0.8746769112647156,-0.11509386628396555,0.0,3.0,-0.11509386628396555,10.1027687001528,8.667033141051864,0.0009251455996944793,294.0,267.0,4.649659863945578,0.14232209737827714,0.3037542662116041,2874.0,8072.0,7.0,4.0,2.0,2.0,0.0,2.0,0.0,2.0,0.0004955401387512388,0.0002477700693756194,0.0,0.5,0.5,0.0,1.0,1.0,2.0,2.0,2.0
6.0,0.36322500878958003,0.6282802278230188,0.0036178989999999995,0.6686849599999999,3.3333333333333335,3.3333333333333335,2.6666666666666665,3.3333333333333335,4.666666666666667,5.0,4.333333333333333,4.0,3.6666666666666665,2952.0,8072.0,5.468834688346884,0.0018532140590806112,0.0016931925814939544,0.8746769112647156,-0.11509386628396555,0.0,3.0,-0.11509386628396555,10.1027687001528,8.667033141051864,0.0009251455996944793,294.0,267.0,4.649659863945578,0.14232209737827714,0.3037542662116041,2874.0,8072.0,7.0,4.0,2.0,2.0,0.0,2.0,,2.0,0.0004955401387512388,0.0002477700693756194,0.0,0.5,0.5,0.0,1.0,1.0,2.0,2.0,2.0
7.0,0.22134802739216985,0.535159309703399,0.0021569075,0.684596,3.3333333333333335,3.3333333333333335,2.6666666666666665,3.3333333333333335,4.666666666666667,5.0,4.333333333333333,4.0,3.6666666666666665,2952.0,8072.0,5.468834688346884,0.0018532140590806112,0.0016931925814939544,0.8746769112647156,-0.11509386628396555,0.0,3.0,-0.11509386628396555,10.1027687001528,8.667033141051864,0.0009251455996944793,294.0,267.0,4.649659863945578,0.14232209737827714,0.3037542662116041,2874.0,8072.0,7.0,4.0,2.0,2.0,0.0,2.0,,2.0,0.0004955401387512388,0.0002477700693756194,0.0,0.5,0.5,0.0,1.0,1.0,2.0,2.0,2.0
8.0,0.410958733927885,0.6567672480286614,0.12849143,0.9159797,2.6666666666666665,1.6666666666666667,2.0,2.3333333333333335,4.0,3.0,4.0,3.6666666666666665,3.6666666666666665,2952.0,8072.0,5.468834688346884,0.0018532140590806112,0.0016931925814939544,0.8746769112647156,-0.11509386628396555,0.0,3.0,-0.11509386628396555,10.1027687001528,8.667033141051864,0.0009251455996944793,294.0,267.0,4.649659863945578,0.14232209737827714,0.3037542662116041,2874.0,8072.0,7.0,4.0,2.0,2.0,0.0,2.0,,2.0,0.0004955401387512388,0.0002477700693756194,0.0,0.5,0.5,0.0,1.0,1.0,2.0,2.0,2.0
9.0,0.5901343673311757,0.7170836180299022,0.9756727,0.672523,2.6666666666666665,1.6666666666666667,2.0,2.3333333333333335,4.0,3.0,4.0,3.6666666666666665,3.6666666666666665,2966.0,8110.0,5.468644639244774,0.0018443995410606323,0.0016983231791995602,0.8799661413981029,-0.11625249811621237,0.0,3.0,-0.11625249811621237,10.112826328237436,8.69806105845219,0.0009207521157974237,294.0,267.0,4.683673469387755,0.14232209737827714,0.3037542662116041,2903.0,8110.0,8.0,5.0,3.0,3.0,0.0,2.0,0.0,3.0,0.0006165228113440197,0.00036991368680641185,0.0,0.6,0.6,0.0,1.0,1.0,3.0,3.0,3.0
10.0,0.4068824125990676,0.5743481846861572,0.9960758,0.63530654,3.6666666666666665,3.3333333333333335,3.6666666666666665,3.0,4.333333333333333,4.666666666666667,4.0,4.0,3.0,2966.0,8110.0,5.468644639244774,0.0018443995410606323,0.0016983231791995602,0.8799661413981029,-0.11625249811621237,0.0,3.0,-0.11625249811621237,10.112826328237436,8.69806105845219,0.0009207521157974237,294.0,267.0,4.683673469387755,0.14232209737827714,0.3037542662116041,2903.0,8110.0,8.0,5.0,3.0,3.0,0.0,2.0,,3.0,0.0006165228113440197,0.00036991368680641185,0.0,0.6,0.6,0.0,1.0,1.0,3.0,3.0,3.0
11.0,0.39444968102908323,0.5257737427966603,0.9957162,0.6404398,3.6666666666666665,3.3333333333333335,3.6666666666666665,3.0,4.333333333333333,4.666666666666667,4.0,4.0,3.0,2966.0,8110.0,5.468644639244774,0.0018443995410606323,0.0016983231791995602,0.8799661413981029,-0.11625249811621237,0.0,3.0,-0.11625249811621237,10.112826328237436,8.69806105845219,0.0009207521157974237,294.0,267.0,4.683673469387755,0.14232209737827714,0.3037542662116041,2903.0,8110.0,8.0,5.0,3.0,3.0,0.0,2.0,,3.0,0.0006165228113440197,0.00036991368680641185,0.0,0.6,0.6,0.0,1.0,1.0,3.0,3.0,3.0
12.0,0.019692085343121998,0.3449977243325657,0.9908444,0.49022119999999997,3.6666666666666665,4.666666666666667,3.0,2.0,3.0,4.0,4.666666666666667,4.0,5.0,2966.0,8110.0,5.468644639244774,0.0018443995410606323,0.0016983231791995602,0.8799661413981029,-0.11625249811621237,0.0,3.0,-0.11625249811621237,10.112826328237436,8.69806105845219,0.0009207521157974237,294.0,267.0,4.683673469387755,0.14232209737827714,0.3037542662116041,2903.0,8110.0,8.0,5.0,3.0,3.0,0.0,2.0,,3.0,0.0006165228113440197,0.00036991368680641185,0.0,0.6,0.6,0.0,1.0,1.0,3.0,3.0,3.0
13.0,0.39152828453314203,0.47945536227356106,0.99418354,0.99568915,3.6666666666666665,4.666666666666667,3.0,2.0,3.0,4.0,4.666666666666667,4.0,5.0,2980.0,8149.0,5.469127516778523,0.0018358937619263255,0.0017096382631115398,0.8852520147510746,-0.117526865650837,0.0,3.0,-0.117526865650837,10.122666208669415,8.73505538632965,0.0009165127696950587,294.0,267.0,4.72108843537415,0.14232209737827714,0.3037542662116041,2933.0,8149.0,9.0,6.0,4.0,4.0,0.0,2.0,0.0,4.0,0.0007362866609399927,0.0004908577739599951,0.0,0.6666666666666666,0.6666666666666666,0.0,1.0,1.0,4.0,4.0,4.0
14.0,0.6298216415092897,0.8297420465019468,0.9974281,0.9956084,3.3333333333333335,2.3333333333333335,2.0,3.3333333333333335,4.666666666666667,5.0,4.666666666666667,4.666666666666667,5.0,2980.0,8149.0,5.469127516778523,0.0018358937619263255,0.0017096382631115398,0.8852520147510746,-0.117526865650837,0.0,3.0,-0.117526865650837,10.122666208669415,8.73505538632965,0.0009165127696950587,294.0,267.0,4.72108843537415,0.14232209737827714,0.3037542662116041,2933.0,8149.0,9.0,6.0,4.0,4.0,0.0,2.0,,4.0,0.0007362866609399927,0.0004908577739599951,0.0,0.6666666666666666,0.6666666666666666,0.0,1.0,1.0,4.0,4.0,4.0
15.0,0.0,0.11284307390300953,0.94915247,0.97742593,3.3333333333333335,2.3333333333333335,2.0,3.3333333333333335,4.666666666666667,5.0,4.666666666666667,4.666666666666667,5.0,2980.0,8149.0,5.469127516778523,0.0018358937619263255,0.0017096382631115398,0.8852520147510746,-0.117526865650837,0.0,3.0,-0.117526865650837,10.122666208669415,8.73505538632965,0.0009165127696950587,294.0,267.0,4.72108843537415,0.14232209737827714,0.3037542662116041,2933.0,8149.0,9.0,6.0,4.0,4.0,0.0,2.0,,4.0,0.0007362866609399927,0.0004908577739599951,0.0,0.6666666666666666,0.6666666666666666,0.0,1.0,1.0,4.0,4.0,4.0
16.0,0.060185804498300334,0.4833448864679731,0.9893442,0.9874023,5.0,5.0,2.0,1.0,5.0,5.0,5.0,5.0,5.0,2980.0,8149.0,5.469127516778523,0.0018358937619263255,0.0017096382631115398,0.8852520147510746,-0.117526865650837,0.0,3.0,-0.117526865650837,10.122666208669415,8.73505538632965,0.0009165127696950587,294.0,267.0,4.72108843537415,0.14232209737827714,0.3037542662116041,2933.0,8149.0,9.0,6.0,4.0,4.0,0.0,2.0,,4.0,0.0007362866609399927,0.0004908577739599951,0.0,0.6666666666666666,0.6666666666666666,0.0,1.0,1.0,4.0,4.0,4.0
17.0,0.16920233963280026,0.6446854919130117,0.9849576,0.9902117,5.0,5.0,2.0,1.0,5.0,5.0,5.0,5.0,5.0,2980.0,8149.0,5.469127516778523,0.0018358937619263255,0.0017096382631115398,0.8852520147510746,-0.117526865650837,0.0,3.0,-0.117526865650837,10.122666208669415,8.73505538632965,0.0009165127696950587,294.0,267.0,4.72108843537415,0.14232209737827714,0.3037542662116041,2933.0,8149.0,9.0,6.0,4.0,4.0,0.0,2.0,,4.0,0.0007362866609399927,0.0004908577739599951,0.0,0.6666666666666666,0.6666666666666666,0.0,1.0,1.0,4.0,4.0,4.0
18.0,0.0,0.16307280958465878,0.9733797000000001,0.43937659999999995,5.0,5.0,2.0,1.0,5.0,5.0,5.0,5.0,5.0,2980.0,8149.0,5.469127516778523,0.0018358937619263255,0.0017096382631115398,0.8852520147510746,-0.117526865650837,0.0,3.0,-0.117526865650837,10.122666208669415,8.73505538632965,0.0009165127696950587,294.0,267.0,4.72108843537415,0.14232209737827714,0.3037542662116041,2933.0,8149.0,9.0,6.0,4.0,4.0,0.0,2.0,,4.0,0.0007362866609399927,0.0004908577739599951,0.0,0.6666666666666666,0.6666666666666666,0.0,1.0,1.0,4.0,4.0,4.0
19.0,0.3970757067135681,0.6102597177019103,0.9505627,0.44349608,5.0,5.0,2.0,1.0,5.0,5.0,5.0,5.0,5.0,2980.0,8149.0,5.469127516778523,0.0018358937619263255,0.0017096382631115398,0.8852520147510746,-0.117526865650837,0.0,3.0,-0.117526865650837,10.122666208669415,8.73505538632965,0.0009165127696950587,294.0,267.0,4.72108843537415,0.14232209737827714,0.3037542662116041,2933.0,8149.0,9.0,6.0,4.0,4.0,0.0,2.0,,4.0,0.0007362866609399927,0.0004908577739599951,0.0,0.6666666666666666,0.6666666666666666,0.0,1.0,1.0,4.0,4.0,4.0
20.0,0.0,0.12573067842609353,0.9000346,0.45659160000000004,5.0,5.0,2.0,1.0,5.0,5.0,5.0,5.0,5.0,2996.0,8197.0,5.47196261682243,0.0018270325932629148,0.0017211427973614906,0.8925931042944387,-0.11863816310469048,0.0,3.0,-0.11863816310469048,10.134414917937582,8.772471186598175,0.0009120973046393857,294.0,267.0,4.77891156462585,0.14232209737827714,0.3037542662116041,2970.0,8197.0,11.0,8.0,5.0,5.0,0.0,3.0,0.0,5.0,0.0009759668171282176,0.000609979260705136,0.0,0.625,0.625,0.0,1.0,1.0,5.0,2.5,2.5
21.0,0.4540540724995168,0.6325696669679298,0.9639224,0.52162325,3.6666666666666665,2.6666666666666665,4.666666666666667,2.6666666666666665,4.333333333333333,5.0,4.666666666666667,4.666666666666667,5.0,2996.0,8197.0,5.47196261682243,0.0018270325932629148,0.0017211427973614906,0.8925931042944387,-0.11863816310469048,0.0,3.0,-0.11863816310469048,10.134414917937582,8.772471186598175,0.0009120973046393857,294.0,267.0,4.77891156462585,0.14232209737827714,0.3037542662116041,2970.0,8197.0,11.0,8.0,5.0,5.0,0.0,3.0,,5.0,0.0009759668171282176,0.000609979260705136,0.0,0.625,0.625,0.0,1.0,1.0,5.0,2.5,2.5
22.0,0.5802758932075766,0.5958485370667918,0.3449439,0.89211553,3.6666666666666665,2.6666666666666665,4.666666666666667,2.6666666666666665,4.333333333333333,5.0,4.666666666666667,4.666666666666667,5.0,3008.0,8236.0,5.476063829787234,0.0018211053640795592,0.0017389519884980912,0.8970748018478064,-0.12086653711989505,0.0,3.0,-0.12086653711989505,10.143106738478078,8.811499922963751,0.0009091447629017655,294.0,267.0,4.816326530612245,0.14232209737827714,0.3037542662116041,3001.0,8236.0,12.0,9.0,6.0,6.0,0.0,3.0,0.0,6.0,0.0010927634774162214,0.0007285089849441476,0.0,0.6666666666666666,0.6666666666666666,0.0,1.0,1.0,6.0,3.0,3.0
23.0,0.3448138436873691,0.7349087568897744,0.6832265,0.9918304,4.0,3.3333333333333335,2.6666666666666665,3.0,4.333333333333333,5.0,4.666666666666667,4.333333333333333,4.0,3008.0,8236.0,5.476063829787234,0.0018211053640795592,0.0017389519884980912,0.8970748018478064,-0.12086653711989505,0.0,3.0,-0.12086653711989505,10.143106738478078,8.811499922963751,0.0009091447629017655,294.0,267.0,4.816326530612245,0.14232209737827714,0.3037542662116041,3001.0,8236.0,12.0,9.0,6.0,6.0,0.0,3.0,,6.0,0.0010927634774162214,0.0007285089849441476,0.0,0.6666666666666666,0.6666666666666666,0.0,1.0,1.0,6.0,3.0,3.0
24.0,0.2256509721186096,0.6704343169951731,0.9976382,0.996465,4.0,3.3333333333333335,2.6666666666666665,3.0,4.333333333333333,5.0,4.666666666666667,4.333333333333333,4.0,3020.0,8272.0,5.478145695364239,0.001814556374748009,0.0017789420376361899,0.9016414479435003,-0.12289685610821027,0.0,3.0,-0.12289685610821027,10.151135912486772,8.876289472455213,0.0009058813209946933,294.0,267.0,4.846938775510204,0.14232209737827714,0.3037542662116041,3030.0,8272.0,12.0,10.0,7.0,7.0,0.0,3.0,0.0,7.0,0.0012088974854932303,0.0008462282398452611,0.0,0.7,0.7,0.0,1.0,1.0,7.0,3.5,3.5
25.0,0.3536556303667419,0.6739754110716483,0.98112196,0.6209001,3.0,2.6666666666666665,3.3333333333333335,3.6666666666666665,3.3333333333333335,3.6666666666666665,4.0,3.3333333333333335,2.3333333333333335,3020.0,8272.0,5.478145695364239,0.001814556374748009,0.0017789420376361899,0.9016414479435003,-0.12289685610821027,0.0,3.0,-0.12289685610821027,10.151135912486772,8.876289472455213,0.0009058813209946933,294.0,267.0,4.846938775510204,0.14232209737827714,0.3037542662116041,3030.0,8272.0,12.0,10.0,7.0,7.0,0.0,3.0,,7.0,0.0012088974854932303,0.0008462282398452611,0.0,0.7,0.7,0.0,1.0,1.0,7.0,3.5,3.5
26.0,0.2971346259078084,0.6489637732670532,0.028484542,0.37892663,3.0,2.6666666666666665,3.3333333333333335,3.6666666666666665,3.3333333333333335,3.6666666666666665,4.0,3.3333333333333335,2.3333333333333335,3036.0,8314.0,5.4769433465085635,0.0018045941833636123,0.0018007890360327232,0.9063095407980778,-0.12435718910847114,0.0,3.0,-0.12435718910847114,10.16127856316623,8.919558508976056,0.0009009149754982373,294.0,267.0,4.887755102040816,0.14232209737827714,0.3037542662116041,3062.0,8314.0,13.0,11.0,8.0,8.0,0.0,3.0,0.0,8.0,0.0013230695212893915,0.0009622323791195574,0.0,0.7272727272727273,0.7272727272727273,0.0,1.0,1.0,8.0,4.0,4.0
27.0,0.3690334297811078,0.579328071931266,0.078096494,0.6409775,2.0,2.6666666666666665,3.3333333333333335,3.0,3.0,2.6666666666666665,1.6666666666666667,2.6666666666666665,3.0,3036.0,8314.0,5.4769433465085635,0.0018045941833636123,0.0018007890360327232,0.9063095407980778,-0.12435718910847114,0.0,3.0,-0.12435718910847114,10.16127856316623,8.919558508976056,0.0009009149754982373,294.0,267.0,4.887755102040816,0.14232209737827714,0.3037542662116041,3062.0,8314.0,13.0,11.0,8.0,8.0,0.0,3.0,,8.0,0.0013230695212893915,0.0009622323791195574,0.0,0.7272727272727273,0.7272727272727273,0.0,1.0,1.0,8.0,4.0,4.0
28.0,0.0349412163099102,0.17187392462191145,0.9975815,0.99534214,2.0,2.6666666666666665,3.3333333333333335,3.0,3.0,2.6666666666666665,1.6666666666666667,2.6666666666666665,3.0,3052.0,8356.0,5.475753604193971,0.0017947406110108068,0.0018255000155734272,0.9107669432889611,-0.12590960311095703,0.0,3.0,-0.12590960311095703,10.171388414727883,8.9631648276821,0.0008960027071176927,294.0,267.0,4.925170068027211,0.14232209737827714,0.3037542662116041,3093.0,8356.0,14.0,12.0,9.0,9.0,0.0,3.0,0.0,9.0,0.0014360938247965534,0.001077070368597415,0.0,0.75,0.75,0.0,1.0,1.0,9.0,4.5,4.5
29.0,0.726461271429971,0.8839193880705342,0.9972439999999999,0.9968267699999999,2.0,2.0,3.3333333333333335,2.6666666666666665,2.6666666666666665,2.0,1.6666666666666667,2.3333333333333335,3.0,3052.0,8356.0,5.475753604193971,0.0017947406110108068,0.0018255000155734272,0.9107669432889611,-0.12590960311095703,0.0,3.0,-0.12590960311095703,10.171388414727883,8.9631648276821,0.0008960027071176927,294.0,267.0,4.925170068027211,0.14232209737827714,0.3037542662116041,3093.0,8356.0,14.0,12.0,9.0,9.0,0.0,3.0,,9.0,0.0014360938247965534,0.001077070368597415,0.0,0.75,0.75,0.0,1.0,1.0,9.0,4.5,4.5
30.0,0.836619595691063,0.836619595691063,0.9973717299999999,0.99695784,2.0,2.0,3.3333333333333335,2.6666666666666665,2.6666666666666665,2.0,1.6666666666666667,2.3333333333333335,3.0,3064.0,8392.0,5.477806788511749,0.0017883796240652137,0.0018471040487559637,0.9150012083455942,-0.12785513291449463,0.0,3.0,-0.12785513291449463,10.179018312964386,8.996462217012631,0.0008928327959151674,294.0,267.0,4.95578231292517,0.14232209737827714,0.3037542662116041,3122.0,8392.0,14.0,13.0,10.0,10.0,0.0,3.0,0.0,10.0,0.0015490943755958055,0.0011916110581506197,0.0,0.7692307692307693,0.7692307692307693,0.0,1.0,1.0,10.0,5.0,5.0
31.0,0.5475727469928782,0.803478015591156,0.99713945,0.9967476,3.3333333333333335,2.0,1.6666666666666667,3.0,4.333333333333333,4.666666666666667,4.0,4.666666666666667,3.6666666666666665,3064.0,8392.0,5.477806788511749,0.0017883796240652137,0.0018471040487559637,0.9150012083455942,-0.12785513291449463,0.0,3.0,-0.12785513291449463,10.179018312964386,8.996462217012631,0.0008928327959151674,294.0,267.0,4.95578231292517,0.14232209737827714,0.3037542662116041,3122.0,8392.0,14.0,13.0,10.0,10.0,0.0,3.0,,10.0,0.0015490943755958055,0.0011916110581506197,0.0,0.7692307692307693,0.7692307692307693,0.0,1.0,1.0,10.0,5.0,5.0
32.0,0.09830770020789066,0.6985323627859877,0.9978747,0.9968613999999999,3.3333333333333335,2.0,1.6666666666666667,3.0,4.333333333333333,4.666666666666667,4.0,4.666666666666667,3.6666666666666665,3064.0,8392.0,5.477806788511749,0.0017883796240652137,0.0018471040487559637,0.9150012083455942,-0.12785513291449463,0.0,3.0,-0.12785513291449463,10.179018312964386,8.996462217012631,0.0008928327959151674,294.0,267.0,4.95578231292517,0.14232209737827714,0.3037542662116041,3122.0,8392.0,14.0,13.0,10.0,10.0,0.0,3.0,,10.0,0.0015490943755958055,0.0011916110581506197,0.0,0.7692307692307693,0.7692307692307693,0.0,1.0,1.0,10.0,5.0,5.0
33.0,0.41203141850723046,0.7028977232213313,0.995588,0.99632585,2.3333333333333335,1.3333333333333333,1.6666666666666667,1.0,3.3333333333333335,3.0,3.6666666666666665,4.0,3.6666666666666665,3064.0,8392.0,5.477806788511749,0.0017883796240652137,0.0018471040487559637,0.9150012083455942,-0.12785513291449463,0.0,3.0,-0.12785513291449463,10.179018312964386,8.996462217012631,0.0008928327959151674,294.0,267.0,4.95578231292517,0.14232209737827714,0.3037542662116041,3122.0,8392.0,14.0,13.0,10.0,10.0,0.0,3.0,,10.0,0.0015490943755958055,0.0011916110581506197,0.0,0.7692307692307693,0.7692307692307693,0.0,1.0,1.0,10.0,5.0,5.0
34.0,0.0,0.6075630187992188,0.58667415,0.9968340000000001,2.3333333333333335,1.3333333333333333,1.6666666666666667,1.0,3.3333333333333335,3.0,3.6666666666666665,4.0,3.6666666666666665,3064.0,8392.0,5.477806788511749,0.0017883796240652137,0.0018471040487559637,0.9150012083455942,-0.12785513291449463,0.0,3.0,-0.12785513291449463,10.179018312964386,8.996462217012631,0.0008928327959151674,294.0,267.0,4.95578231292517,0.14232209737827714,0.3037542662116041,3122.0,8392.0,14.0,13.0,10.0,10.0,0.0,3.0,,10.0,0.0015490943755958055,0.0011916110581506197,0.0,0.7692307692307693,0.7692307692307693,0.0,1.0,1.0,10.0,5.0,5.0
35.0,0.0,0.1549567580148722,0.11858278,0.9966915,2.3333333333333335,1.3333333333333333,1.6666666666666667,1.0,3.3333333333333335,3.0,3.6666666666666665,4.0,3.6666666666666665,3064.0,8392.0,5.477806788511749,0.0017883796240652137,0.0018471040487559637,0.9150012083455942,-0.12785513291449463,0.0,3.0,-0.12785513291449463,10.179018312964386,8.996462217012631,0.0008928327959151674,294.0,267.0,4.95578231292517,0.14232209737827714,0.3037542662116041,3122.0,8392.0,14.0,13.0,10.0,10.0,0.0,3.0,,10.0,0.0015490943755958055,0.0011916110581506197,0.0,0.7692307692307693,0.7692307692307693,0.0,1.0,1.0,10.0,5.0,5.0
36.0,0.3535490761074593,0.6112107325918308,0.15723738,0.99575377,2.3333333333333335,1.3333333333333333,1.6666666666666667,1.0,3.3333333333333335,3.0,3.6666666666666665,4.0,3.6666666666666665,3064.0,8392.0,5.477806788511749,0.0017883796240652137,0.0018471040487559637,0.9150012083455942,-0.12785513291449463,0.0,3.0,-0.12785513291449463,10.179018312964386,8.996462217012631,0.0008928327959151674,294.0,267.0,4.95578231292517,0.14232209737827714,0.3037542662116041,3122.0,8392.0,14.0,13.0,10.0,10.0,0.0,3.0,,10.0,0.0015490943755958055,0.0011916110581506197,0.0,0.7692307692307693,0.7692307692307693,0.0,1.0,1.0,10.0,5.0,5.0
37.0,0.0,0.10941106827377979,0.04598525,0.97013,2.3333333333333335,1.3333333333333333,1.6666666666666667,1.0,3.3333333333333335,3.0,3.6666666666666665,4.0,3.6666666666666665,3064.0,8392.0,5.477806788511749,0.0017883796240652137,0.0018471040487559637,0.9150012083455942,-0.12785513291449463,0.0,3.0,-0.12785513291449463,10.179018312964386,8.996462217012631,0.0008928327959151674,294.0,267.0,4.95578231292517,0.14232209737827714,0.3037542662116041,3122.0,8392.0,14.0,13.0,10.0,10.0,0.0,3.0,,10.0,0.0015490943755958055,0.0011916110581506197,0.0,0.7692307692307693,0.7692307692307693,0.0,1.0,1.0,10.0,5.0,5.0
38.0,0.37656611800129186,0.6346970662316421,0.009336992,0.9472536000000001,2.3333333333333335,1.3333333333333333,1.6666666666666667,1.0,3.3333333333333335,3.0,3.6666666666666665,4.0,3.6666666666666665,3064.0,8392.0,5.477806788511749,0.0017883796240652137,0.0018471040487559637,0.9150012083455942,-0.12785513291449463,0.0,3.0,-0.12785513291449463,10.179018312964386,8.996462217012631,0.0008928327959151674,294.0,267.0,4.95578231292517,0.14232209737827714,0.3037542662116041,3122.0,8392.0,14.0,13.0,10.0,10.0,0.0,3.0,,10.0,0.0015490943755958055,0.0011916110581506197,0.0,0.7692307692307693,0.7692307692307693,0.0,1.0,1.0,10.0,5.0,5.0
39.0,0.0,0.05913509055981394,0.028725868,0.6349395,2.3333333333333335,1.3333333333333333,1.6666666666666667,1.0,3.3333333333333335,3.0,3.6666666666666665,4.0,3.6666666666666665,3083.0,8443.0,5.477132662990593,0.0017771358413337427,0.0018635625178919897,0.9215411357179759,-0.12896101359262832,0.0,3.0,-0.12896101359262832,10.19087761998397,9.030538924736682,0.0008872276151778311,294.0,267.0,5.017006802721088,0.14232209737827714,0.3037542662116041,3160.0,8443.0,17.0,15.0,11.0,11.0,0.0,4.0,0.0,11.0,0.0017766196849461093,0.0013028544356271468,0.0,0.7333333333333333,0.7333333333333333,0.0,1.0,1.0,11.0,3.6666666666666665,3.6666666666666665
40.0,0.48202376068425595,0.7154284976281858,0.029860621,0.9337259000000001,4.0,3.0,4.666666666666667,2.6666666666666665,4.666666666666667,5.0,4.666666666666667,5.0,5.0,3083.0,8443.0,5.477132662990593,0.0017771358413337427,0.0018635625178919897,0.9215411357179759,-0.12896101359262832,0.0,3.0,-0.12896101359262832,10.19087761998397,9.030538924736682,0.0008872276151778311,294.0,267.0,5.017006802721088,0.14232209737827714,0.3037542662116041,3160.0,8443.0,17.0,15.0,11.0,11.0,0.0,4.0,,11.0,0.0017766196849461093,0.0013028544356271468,0.0,0.7333333333333333,0.7333333333333333,0.0,1.0,1.0,11.0,3.6666666666666665,3.6666666666666665
41.0,0.5865194648669504,0.8321435600679453,0.132527,0.6355089,4.0,3.0,4.666666666666667,2.6666666666666665,4.666666666666667,5.0,4.666666666666667,5.0,5.0,3097.0,8482.0,5.477558927994834,0.0017692373798432923,0.001876467701713575,0.9262056636958793,-0.13045215402965327,0.0,3.0,-0.13045215402965327,10.199386484424245,9.056615398449878,0.0008832904529459645,294.0,267.0,5.054421768707483,0.14232209737827714,0.3037542662116041,3190.0,8482.0,18.0,16.0,12.0,12.0,0.0,4.0,0.0,12.0,0.001886347559537845,0.0014147606696533837,0.0,0.75,0.75,0.0,1.0,1.0,12.0,4.0,4.0
42.0,0.32572630082677506,0.6392162839714423,0.048327632,0.6446155,2.6666666666666665,3.3333333333333335,3.6666666666666665,4.0,4.333333333333333,4.0,3.0,2.6666666666666665,2.3333333333333335,3097.0,8482.0,5.477558927994834,0.0017692373798432923,0.001876467701713575,0.9262056636958793,-0.13045215402965327,0.0,3.0,-0.13045215402965327,10.199386484424245,9.056615398449878,0.0008832904529459645,294.0,267.0,5.054421768707483,0.14232209737827714,0.3037542662116041,3190.0,8482.0,18.0,16.0,12.0,12.0,0.0,4.0,,12.0,0.001886347559537845,0.0014147606696533837,0.0,0.75,0.75,0.0,1.0,1.0,12.0,4.0,4.0
43.0,0.19526169077707944,0.5372985184128439,0.73086625,0.68147624,2.6666666666666665,3.3333333333333335,3.6666666666666665,4.0,4.333333333333333,4.0,3.0,2.6666666666666665,2.3333333333333335,3097.0,8482.0,5.477558927994834,0.0017692373798432923,0.001876467701713575,0.9262056636958793,-0.13045215402965327,0.0,3.0,-0.13045215402965327,10.199386484424245,9.056615398449878,0.0008832904529459645,294.0,267.0,5.054421768707483,0.14232209737827714,0.3037542662116041,3190.0,8482.0,18.0,16.0,12.0,12.0,0.0,4.0,,12.0,0.001886347559537845,0.0014147606696533837,0.0,0.75,0.75,0.0,1.0,1.0,12.0,4.0,4.0
44.0,0.3302445355868516,0.48699145391055626,0.9269139000000001,0.6751252,3.0,2.6666666666666665,3.3333333333333335,2.3333333333333335,3.3333333333333335,3.0,3.0,3.6666666666666665,5.0,3097.0,8482.0,5.477558927994834,0.0017692373798432923,0.001876467701713575,0.9262056636958793,-0.13045215402965327,0.0,3.0,-0.13045215402965327,10.199386484424245,9.056615398449878,0.0008832904529459645,294.0,267.0,5.054421768707483,0.14232209737827714,0.3037542662116041,3190.0,8482.0,18.0,16.0,12.0,12.0,0.0,4.0,,12.0,0.001886347559537845,0.0014147606696533837,0.0,0.75,0.75,0.0,1.0,1.0,12.0,4.0,4.0
45.0,0.20177324412835487,0.47071864009269,0.9260809,0.45218,3.0,2.6666666666666665,3.3333333333333335,2.3333333333333335,3.3333333333333335,3.0,3.0,3.6666666666666665,5.0,3097.0,8482.0,5.477558927994834,0.0017692373798432923,0.001876467701713575,0.9262056636958793,-0.13045215402965327,0.0,3.0,-0.13045215402965327,10.199386484424245,9.056615398449878,0.0008832904529459645,294.0,267.0,5.054421768707483,0.14232209737827714,0.3037542662116041,3190.0,8482.0,18.0,16.0,12.0,12.0,0.0,4.0,,12.0,0.001886347559537845,0.0014147606696533837,0.0,0.75,0.75,0.0,1.0,1.0,12.0,4.0,4.0
46.0,0.5113777301685491,0.6249509169197857,0.9983824499999999,0.61695576,3.3333333333333335,3.0,2.0,2.0,2.6666666666666665,2.3333333333333335,3.6666666666666665,3.6666666666666665,5.0,3097.0,8482.0,5.477558927994834,0.0017692373798432923,0.001876467701713575,0.9262056636958793,-0.13045215402965327,0.0,3.0,-0.13045215402965327,10.199386484424245,9.056615398449878,0.0008832904529459645,294.0,267.0,5.054421768707483,0.14232209737827714,0.3037542662116041,3190.0,8482.0,18.0,16.0,12.0,12.0,0.0,4.0,,12.0,0.001886347559537845,0.0014147606696533837,0.0,0.75,0.75,0.0,1.0,1.0,12.0,4.0,4.0
47.0,0.2748127281777201,0.3768917240134951,0.9954535,0.6256126,3.3333333333333335,3.0,2.0,2.0,2.6666666666666665,2.3333333333333335,3.6666666666666665,3.6666666666666665,5.0,3097.0,8482.0,5.477558927994834,0.0017692373798432923,0.001876467701713575,0.9262056636958793,-0.13045215402965327,0.0,3.0,-0.13045215402965327,10.199386484424245,9.056615398449878,0.0008832904529459645,294.0,267.0,5.054421768707483,0.14232209737827714,0.3037542662116041,3190.0,8482.0,18.0,16.0,12.0,12.0,0.0,4.0,,12.0,0.001886347559537845,0.0014147606696533837,0.0,0.75,0.75,0.0,1.0,1.0,12.0,4.0,4.0
48.0,0.07276793320982473,0.2641138831849596,0.99413645,0.9806182,2.6666666666666665,2.3333333333333335,2.3333333333333335,1.6666666666666667,1.6666666666666667,1.3333333333333333,2.6666666666666665,3.3333333333333335,4.333333333333333,3097.0,8482.0,5.477558927994834,0.0017692373798432923,0.001876467701713575,0.9262056636958793,-0.13045215402965327,0.0,3.0,-0.13045215402965327,10.199386484424245,9.056615398449878,0.0008832904529459645,294.0,267.0,5.054421768707483,0.14232209737827714,0.3037542662116041,3190.0,8482.0,18.0,16.0,12.0,12.0,0.0,4.0,,12.0,0.001886347559537845,0.0014147606696533837,0.0,0.75,0.75,0.0,1.0,1.0,12.0,4.0,4.0
49.0,0.0916647786896956,0.30660694712262565,0.99325216,0.9507562000000002,2.6666666666666665,2.3333333333333335,2.3333333333333335,1.6666666666666667,1.6666666666666667,1.3333333333333333,2.6666666666666665,3.3333333333333335,4.333333333333333,3112.0,8521.0,5.476221079691516,0.0017602767855003267,0.0018913814856083126,0.9302368666693173,-0.1319841054222267,0.0,3.0,-0.1319841054222267,10.207981977736392,9.085556172917762,0.0008788229987906504,294.0,267.0,5.08843537414966,0.14232209737827714,0.3037542662116041,3219.0,8521.0,19.0,17.0,13.0,13.0,0.0,4.0,0.0,13.0,0.001995071001056214,0.0015256425302194578,0.0,0.7647058823529411,0.7647058823529411,0.0,1.0,1.0,13.0,4.333333333333333,4.333333333333333
50.0,0.49403882486779754,0.7145343514726109,0.998393,0.39274784999999995,3.6666666666666665,2.3333333333333335,1.6666666666666667,3.6666666666666665,4.333333333333333,4.333333333333333,4.666666666666667,5.0,5.0,3112.0,8521.0,5.476221079691516,0.0017602767855003267,0.0018913814856083126,0.9302368666693173,-0.1319841054222267,0.0,3.0,-0.1319841054222267,10.207981977736392,9.085556172917762,0.0008788229987906504,294.0,267.0,5.08843537414966,0.14232209737827714,0.3037542662116041,3219.0,8521.0,19.0,17.0,13.0,13.0,0.0,4.0,,13.0,0.001995071001056214,0.0015256425302194578,0.0,0.7647058823529411,0.7647058823529411,0.0,1.0,1.0,13.0,4.333333333333333,4.333333333333333
51.0,0.23797092338935374,0.3281144946875722,0.9574124,0.40018687,3.6666666666666665,2.3333333333333335,1.6666666666666667,3.6666666666666665,4.333333333333333,4.333333333333333,4.666666666666667,5.0,5.0,3129.0,8563.0,5.473314157877916,0.001749780741009564,0.0018902757765419985,0.9346122715273235,-0.1329771665373682,0.0,3.0,-0.1329771665373682,10.21751740853974,9.097087809655331,0.0008735893798986195,294.0,267.0,5.129251700680272,0.14232209737827714,0.3037542662116041,3250.0,8563.0,21.0,18.0,14.0,14.0,0.0,4.0,0.0,14.0,0.002102067032582039,0.0016349410253415858,0.0,0.7777777777777778,0.7777777777777778,0.0,1.0,1.0,14.0,4.666666666666667,4.666666666666667
52.0,0.2874730204694985,0.5145429335689715,0.37350133,0.44261116,3.0,1.6666666666666667,3.6666666666666665,3.6666666666666665,3.3333333333333335,3.3333333333333335,3.0,3.6666666666666665,3.3333333333333335,3129.0,8563.0,5.473314157877916,0.001749780741009564,0.0018902757765419985,0.9346122715273235,-0.1329771665373682,0.0,3.0,-0.1329771665373682,10.21751740853974,9.097087809655331,0.0008735893798986195,294.0,267.0,5.129251700680272,0.14232209737827714,0.3037542662116041,3250.0,8563.0,21.0,18.0,14.0,14.0,0.0,4.0,,14.0,0.002102067032582039,0.0016349410253415858,0.0,0.7777777777777778,0.7777777777777778,0.0,1.0,1.0,14.0,4.666666666666667,4.666666666666667
53.0,0.5212835073314046,0.7998951748008998,0.9943183699999999,0.05719646,3.0,1.6666666666666667,3.6666666666666665,3.6666666666666665,3.3333333333333335,3.3333333333333335,3.0,3.6666666666666665,3.3333333333333335,3129.0,8563.0,5.473314157877916,0.001749780741009564,0.0018902757765419985,0.9346122715273235,-0.1329771665373682,0.0,3.0,-0.1329771665373682,10.21751740853974,9.097087809655331,0.0008735893798986195,294.0,267.0,5.129251700680272,0.14232209737827714,0.3037542662116041,3250.0,8563.0,21.0,18.0,14.0,14.0,0.0,4.0,,14.0,0.002102067032582039,0.0016349410253415858,0.0,0.7777777777777778,0.7777777777777778,0.0,1.0,1.0,14.0,4.666666666666667,4.666666666666667
54.0,0.2791536986885233,0.39619461597341415,0.99539506,0.18052583999999997,4.333333333333333,3.3333333333333335,4.333333333333333,2.3333333333333335,4.0,4.333333333333333,4.333333333333333,5.0,5.0,3129.0,8563.0,5.473314157877916,0.001749780741009564,0.0018902757765419985,0.9346122715273235,-0.1329771665373682,0.0,3.0,-0.1329771665373682,10.21751740853974,9.097087809655331,0.0008735893798986195,294.0,267.0,5.129251700680272,0.14232209737827714,0.3037542662116041,3250.0,8563.0,21.0,18.0,14.0,14.0,0.0,4.0,,14.0,0.002102067032582039,0.0016349410253415858,0.0,0.7777777777777778,0.7777777777777778,0.0,1.0,1.0,14.0,4.666666666666667,4.666666666666667
55.0,0.0,0.2252803295900502,0.996393,0.40982258,4.333333333333333,3.3333333333333335,4.333333333333333,2.3333333333333335,4.0,4.333333333333333,4.333333333333333,5.0,5.0,3129.0,8563.0,5.473314157877916,0.001749780741009564,0.0018902757765419985,0.9346122715273235,-0.1329771665373682,0.0,3.0,-0.1329771665373682,10.21751740853974,9.097087809655331,0.0008735893798986195,294.0,267.0,5.129251700680272,0.14232209737827714,0.3037542662116041,3250.0,8563.0,21.0,18.0,14.0,14.0,0.0,4.0,,14.0,0.002102067032582039,0.0016349410253415858,0.0,0.7777777777777778,0.7777777777777778,0.0,1.0,1.0,14.0,4.666666666666667,4.666666666666667
56.0,0.0,0.5878213644018473,0.9950008,0.37740514,4.333333333333333,3.3333333333333335,4.333333333333333,2.3333333333333335,4.0,4.333333333333333,4.333333333333333,5.0,5.0,3129.0,8563.0,5.473314157877916,0.001749780741009564,0.0018902757765419985,0.9346122715273235,-0.1329771665373682,0.0,3.0,-0.1329771665373682,10.21751740853974,9.097087809655331,0.0008735893798986195,294.0,267.0,5.129251700680272,0.14232209737827714,0.3037542662116041,3250.0,8563.0,21.0,18.0,14.0,14.0,0.0,4.0,,14.0,0.002102067032582039,0.0016349410253415858,0.0,0.7777777777777778,0.7777777777777778,0.0,1.0,1.0,14.0,4.666666666666667,4.666666666666667
