Turn,GROUP A - Total nodes,GROUP A - Total edges,GROUP A - Average degree,GROUP A - Average degree centrality,GROUP A - Average closeness,GROUP A - Average degree connectivity,GROUP A - Average assortativity,GROUP A - Average node connectivity,GROUP A - Number of components,GROUP A - Number of strong components,GROUP A - Centrality entropy,GROUP A - Closeness entropy,GROUP A - Sparseness,GROUP B - Total classes,GROUP B - Total properties,GROUP B - Average population,GROUP B - Attribute richness,GROUP B - Relationship richness,GROUP B - Total axioms,GROUP C - Total triples,GROUP C - Total world instances,GROUP C - Total claims,GROUP C - Total perspectives,GROUP C - Total mentions,GROUP C - Total conflicts,GROUP C - Total sources,GROUP C - Total interactions,GROUP C - Total utterances,GROUP C - Ratio claim to triples,GROUP C - Ratio perspectives to triples,GROUP C - Ratio conflicts to triples,GROUP C - Ratio perspectives to claims,GROUP C - Ratio mentions to claims,GROUP C - Ratio conflicts to claims,GROUP C - Average perspectives per claim,GROUP C - Average mentions per claim,GROUP C - Average turns per interaction,GROUP C - Average claims per source,GROUP C - Average perspectives per source
0,2870.0,7906.0,5.509407665505226,0.0019203233410614242,0.0017210902516714033,0.8596768057594533,-0.11746526166007992,0.0,3.0,-0.11746526166007992,10.048989987248376,8.553952455944422,0.000958613070451262,294.0,267.0,4.442176870748299,0.14232209737827714,0.3037542662116041,2769.0,7906.0,0.0,0.0,0.0,0.0,0.0,0.0,0.0,0.0,0.0,0.0,0.0,0.0,0.0,0.0,0.0,0.0,0.0,0.0,0.0
1,2870.0,7906.0,5.509407665505226,0.0019203233410614242,0.0017210902516714033,0.8596768057594533,-0.11746526166007992,0.0,3.0,-0.11746526166007992,10.048989987248376,8.553952455944422,0.000958613070451262,294.0,267.0,4.442176870748299,0.14232209737827714,0.3037542662116041,2769.0,7906.0,0.0,0.0,0.0,0.0,0.0,0.0,,0.0,0.0,0.0,0.0,0.0,0.0,0.0,0.0,0.0,0.0,0.0,0.0
2,2870.0,7906.0,5.509407665505226,0.0019203233410614242,0.0017210902516714033,0.8596768057594533,-0.11746526166007992,0.0,3.0,-0.11746526166007992,10.048989987248376,8.553952455944422,0.000958613070451262,294.0,267.0,4.442176870748299,0.14232209737827714,0.3037542662116041,2769.0,7906.0,0.0,0.0,0.0,0.0,0.0,0.0,,0.0,0.0,0.0,0.0,0.0,0.0,0.0,0.0,0.0,0.0,0.0,0.0
3,2870.0,7906.0,5.509407665505226,0.0019203233410614242,0.0017210902516714033,0.8596768057594533,-0.11746526166007992,0.0,3.0,-0.11746526166007992,10.048989987248376,8.553952455944422,0.000958613070451262,294.0,267.0,4.442176870748299,0.14232209737827714,0.3037542662116041,2769.0,7906.0,0.0,0.0,0.0,0.0,0.0,0.0,,0.0,0.0,0.0,0.0,0.0,0.0,0.0,0.0,0.0,0.0,0.0,0.0
4,2870.0,7906.0,5.509407665505226,0.0019203233410614242,0.0017210902516714033,0.8596768057594533,-0.11746526166007992,0.0,3.0,-0.11746526166007992,10.048989987248376,8.553952455944422,0.000958613070451262,294.0,267.0,4.442176870748299,0.14232209737827714,0.3037542662116041,2769.0,7906.0,0.0,0.0,0.0,0.0,0.0,0.0,,0.0,0.0,0.0,0.0,0.0,0.0,0.0,0.0,0.0,0.0,0.0,0.0
5,2870.0,7906.0,5.509407665505226,0.0019203233410614242,0.0017210902516714033,0.8596768057594533,-0.11746526166007992,0.0,3.0,-0.11746526166007992,10.048989987248376,8.553952455944422,0.000958613070451262,294.0,267.0,4.442176870748299,0.14232209737827714,0.3037542662116041,2769.0,7906.0,0.0,0.0,0.0,0.0,0.0,0.0,,0.0,0.0,0.0,0.0,0.0,0.0,0.0,0.0,0.0,0.0,0.0,0.0
6,2870.0,7906.0,5.509407665505226,0.0019203233410614242,0.0017210902516714033,0.8596768057594533,-0.11746526166007992,0.0,3.0,-0.11746526166007992,10.048989987248376,8.553952455944422,0.000958613070451262,294.0,267.0,4.442176870748299,0.14232209737827714,0.3037542662116041,2769.0,7906.0,0.0,0.0,0.0,0.0,0.0,0.0,,0.0,0.0,0.0,0.0,0.0,0.0,0.0,0.0,0.0,0.0,0.0,0.0
7,2929.0,8020.0,5.476271765107545,0.001870311395187003,0.001696339374301215,0.8701868195405915,-0.11510779100718249,0.0,3.0,-0.11510779100718249,10.087127010076621,8.631996224765121,0.0009336707914089699,294.0,267.0,4.595238095238095,0.14232209737827714,0.3037542662116041,2838.0,8020.0,5.0,3.0,1.0,1.0,0.0,2.0,0.0,1.0,0.0003740648379052369,0.00012468827930174563,0.0,0.3333333333333333,0.3333333333333333,0.0,1.0,1.0,1.0,1.0,1.0
8,2929.0,8020.0,5.476271765107545,0.001870311395187003,0.001696339374301215,0.8701868195405915,-0.11510779100718249,0.0,3.0,-0.11510779100718249,10.087127010076621,8.631996224765121,0.0009336707914089699,294.0,267.0,4.595238095238095,0.14232209737827714,0.3037542662116041,2838.0,8020.0,5.0,3.0,1.0,1.0,0.0,2.0,,1.0,0.0003740648379052369,0.00012468827930174563,0.0,0.3333333333333333,0.3333333333333333,0.0,1.0,1.0,1.0,1.0,1.0
9,2943.0,8059.0,5.4767244308528715,0.0018615650682708602,0.0017011126832383679,0.8767288170982355,-0.11548368181039297,0.0,3.0,-0.11548368181039297,10.09803439456258,8.662315493470672,0.0009293116962692101,294.0,267.0,4.63265306122449,0.14232209737827714,0.3037542662116041,2867.0,8059.0,7.0,4.0,2.0,2.0,0.0,2.0,0.0,2.0,0.0004963394962154114,0.0002481697481077057,0.0,0.5,0.5,0.0,1.0,1.0,2.0,2.0,2.0
10,2943.0,8059.0,5.4767244308528715,0.0018615650682708602,0.0017011126832383679,0.8767288170982355,-0.11548368181039297,0.0,3.0,-0.11548368181039297,10.09803439456258,8.662315493470672,0.0009293116962692101,294.0,267.0,4.63265306122449,0.14232209737827714,0.3037542662116041,2867.0,8059.0,7.0,4.0,2.0,2.0,0.0,2.0,,2.0,0.0004963394962154114,0.0002481697481077057,0.0,0.5,0.5,0.0,1.0,1.0,2.0,2.0,2.0
11,2943.0,8059.0,5.4767244308528715,0.0018615650682708602,0.0017011126832383679,0.8767288170982355,-0.11548368181039297,0.0,3.0,-0.11548368181039297,10.09803439456258,8.662315493470672,0.0009293116962692101,294.0,267.0,4.63265306122449,0.14232209737827714,0.3037542662116041,2867.0,8059.0,7.0,4.0,2.0,2.0,0.0,2.0,,2.0,0.0004963394962154114,0.0002481697481077057,0.0,0.5,0.5,0.0,1.0,1.0,2.0,2.0,2.0
12,2943.0,8059.0,5.4767244308528715,0.0018615650682708602,0.0017011126832383679,0.8767288170982355,-0.11548368181039297,0.0,3.0,-0.11548368181039297,10.09803439456258,8.662315493470672,0.0009293116962692101,294.0,267.0,4.63265306122449,0.14232209737827714,0.3037542662116041,2867.0,8059.0,7.0,4.0,2.0,2.0,0.0,2.0,,2.0,0.0004963394962154114,0.0002481697481077057,0.0,0.5,0.5,0.0,1.0,1.0,2.0,2.0,2.0
13,2950.0,8085.0,5.48135593220339,0.0018587168301808716,0.0017033909594337832,0.880171446055242,-0.11711982480785636,0.0,3.0,-0.11711982480785636,10.103978977142393,8.677100671596497,0.0009278942832519391,294.0,267.0,4.653061224489796,0.14232209737827714,0.3037542662116041,2888.0,8085.0,7.0,4.0,2.0,3.0,0.0,2.0,0.0,3.0,0.000494743351886209,0.0002473716759431045,0.0,0.5,0.75,0.0,1.0,1.5,3.0,2.0,2.0
14,2950.0,8085.0,5.48135593220339,0.0018587168301808716,0.0017033909594337832,0.880171446055242,-0.11711982480785636,0.0,3.0,-0.11711982480785636,10.103978977142393,8.677100671596497,0.0009278942832519391,294.0,267.0,4.653061224489796,0.14232209737827714,0.3037542662116041,2888.0,8085.0,7.0,4.0,2.0,3.0,0.0,2.0,,3.0,0.000494743351886209,0.0002473716759431045,0.0,0.5,0.75,0.0,1.0,1.5,3.0,2.0,2.0
15,2957.0,8111.0,5.48596550557998,0.0018558746635926858,0.0017056020673272831,0.8835655681131495,-0.11882335754509309,0.0,3.0,-0.11882335754509309,10.109757889212261,8.691169770215481,0.0009264798602995088,294.0,267.0,4.673469387755102,0.14232209737827714,0.3037542662116041,2909.0,8111.0,7.0,4.0,2.0,4.0,0.0,2.0,0.0,4.0,0.0004931574405128837,0.00024657872025644185,0.0,0.5,1.0,0.0,1.0,2.0,4.0,2.0,2.0
16,2957.0,8111.0,5.48596550557998,0.0018558746635926858,0.0017056020673272831,0.8835655681131495,-0.11882335754509309,0.0,3.0,-0.11882335754509309,10.109757889212261,8.691169770215481,0.0009264798602995088,294.0,267.0,4.673469387755102,0.14232209737827714,0.3037542662116041,2909.0,8111.0,7.0,4.0,2.0,4.0,0.0,2.0,,4.0,0.0004931574405128837,0.00024657872025644185,0.0,0.5,1.0,0.0,1.0,2.0,4.0,2.0,2.0
17,2957.0,8111.0,5.48596550557998,0.0018558746635926858,0.0017056020673272831,0.8835655681131495,-0.11882335754509309,0.0,3.0,-0.11882335754509309,10.109757889212261,8.691169770215481,0.0009264798602995088,294.0,267.0,4.673469387755102,0.14232209737827714,0.3037542662116041,2909.0,8111.0,7.0,4.0,2.0,4.0,0.0,2.0,,4.0,0.0004931574405128837,0.00024657872025644185,0.0,0.5,1.0,0.0,1.0,2.0,4.0,2.0,2.0
18,2957.0,8111.0,5.48596550557998,0.0018558746635926858,0.0017056020673272831,0.8835655681131495,-0.11882335754509309,0.0,3.0,-0.11882335754509309,10.109757889212261,8.691169770215481,0.0009264798602995088,294.0,267.0,4.673469387755102,0.14232209737827714,0.3037542662116041,2909.0,8111.0,7.0,4.0,2.0,4.0,0.0,2.0,,4.0,0.0004931574405128837,0.00024657872025644185,0.0,0.5,1.0,0.0,1.0,2.0,4.0,2.0,2.0
19,2964.0,8137.0,5.49055330634278,0.0018530385779084643,0.0017081779447467862,0.8867246280732104,-0.12078650104065904,0.0,3.0,-0.12078650104065904,10.115199160779374,8.705281301446652,0.0009250684325263485,294.0,267.0,4.6938775510204085,0.14232209737827714,0.3037542662116041,2930.0,8137.0,7.0,4.0,2.0,5.0,0.0,2.0,0.0,5.0,0.0004915816640039326,0.0002457908320019663,0.0,0.5,1.25,0.0,1.0,2.5,5.0,2.0,2.0
20,2964.0,8137.0,5.49055330634278,0.0018530385779084643,0.0017081779447467862,0.8867246280732104,-0.12078650104065904,0.0,3.0,-0.12078650104065904,10.115199160779374,8.705281301446652,0.0009250684325263485,294.0,267.0,4.6938775510204085,0.14232209737827714,0.3037542662116041,2930.0,8137.0,7.0,4.0,2.0,5.0,0.0,2.0,,5.0,0.0004915816640039326,0.0002457908320019663,0.0,0.5,1.25,0.0,1.0,2.5,5.0,2.0,2.0
21,2971.0,8163.0,5.495119488387748,0.001850208581948737,0.0017106749134439753,0.889853842431156,-0.12278823167576286,0.0,3.0,-0.12278823167576286,10.120513626226757,8.71875863049948,0.0009236600047514167,294.0,267.0,4.714285714285714,0.14232209737827714,0.3037542662116041,2951.0,8163.0,7.0,4.0,2.0,6.0,0.0,2.0,0.0,6.0,0.0004900159255175794,0.0002450079627587897,0.0,0.5,1.5,0.0,1.0,3.0,6.0,2.0,2.0
22,2971.0,8163.0,5.495119488387748,0.001850208581948737,0.0017106749134439753,0.889853842431156,-0.12278823167576286,0.0,3.0,-0.12278823167576286,10.120513626226757,8.71875863049948,0.0009236600047514167,294.0,267.0,4.714285714285714,0.14232209737827714,0.3037542662116041,2951.0,8163.0,7.0,4.0,2.0,6.0,0.0,2.0,,6.0,0.0004900159255175794,0.0002450079627587897,0.0,0.5,1.5,0.0,1.0,3.0,6.0,2.0,2.0
23,2971.0,8163.0,5.495119488387748,0.001850208581948737,0.0017106749134439753,0.889853842431156,-0.12278823167576286,0.0,3.0,-0.12278823167576286,10.120513626226757,8.71875863049948,0.0009236600047514167,294.0,267.0,4.714285714285714,0.14232209737827714,0.3037542662116041,2951.0,8163.0,7.0,4.0,2.0,6.0,0.0,2.0,,6.0,0.0004900159255175794,0.0002450079627587897,0.0,0.5,1.5,0.0,1.0,3.0,6.0,2.0,2.0
24,2971.0,8163.0,5.495119488387748,0.001850208581948737,0.0017106749134439753,0.889853842431156,-0.12278823167576286,0.0,3.0,-0.12278823167576286,10.120513626226757,8.71875863049948,0.0009236600047514167,294.0,267.0,4.714285714285714,0.14232209737827714,0.3037542662116041,2951.0,8163.0,7.0,4.0,2.0,6.0,0.0,2.0,,6.0,0.0004900159255175794,0.0002450079627587897,0.0,0.5,1.5,0.0,1.0,3.0,6.0,2.0,2.0
25,2978.0,8189.0,5.499664204163868,0.0018473846839650212,0.0017135512474286186,0.8929649540318438,-0.12499548522434414,0.0,3.0,-0.12499548522434414,10.125562777711911,8.73236473480898,0.0009222545815045729,294.0,267.0,4.73469387755102,0.14232209737827714,0.3037542662116041,2972.0,8189.0,7.0,4.0,2.0,7.0,0.0,2.0,0.0,7.0,0.0004884601294419343,0.00024423006472096715,0.0,0.5,1.75,0.0,1.0,3.5,7.0,2.0,2.0
26,2978.0,8189.0,5.499664204163868,0.0018473846839650212,0.0017135512474286186,0.8929649540318438,-0.12499548522434414,0.0,3.0,-0.12499548522434414,10.125562777711911,8.73236473480898,0.0009222545815045729,294.0,267.0,4.73469387755102,0.14232209737827714,0.3037542662116041,2972.0,8189.0,7.0,4.0,2.0,7.0,0.0,2.0,,7.0,0.0004884601294419343,0.00024423006472096715,0.0,0.5,1.75,0.0,1.0,3.5,7.0,2.0,2.0
27,2985.0,8215.0,5.5041876046901175,0.0018445668916521841,0.0017163408764379832,0.8960533527391813,-0.12720986277356588,0.0,3.0,-0.12720986277356588,10.13050796987201,8.745401465758448,0.000920852167032819,294.0,267.0,4.755102040816326,0.14232209737827714,0.3037542662116041,2993.0,8215.0,7.0,4.0,2.0,8.0,0.0,2.0,0.0,8.0,0.00048691418137553256,0.00024345709068776628,0.0,0.5,2.0,0.0,1.0,4.0,8.0,2.0,2.0
28,2985.0,8215.0,5.5041876046901175,0.0018445668916521841,0.0017163408764379832,0.8960533527391813,-0.12720986277356588,0.0,3.0,-0.12720986277356588,10.13050796987201,8.745401465758448,0.000920852167032819,294.0,267.0,4.755102040816326,0.14232209737827714,0.3037542662116041,2993.0,8215.0,7.0,4.0,2.0,8.0,0.0,2.0,,8.0,0.00048691418137553256,0.00024345709068776628,0.0,0.5,2.0,0.0,1.0,4.0,8.0,2.0,2.0
29,2985.0,8215.0,5.5041876046901175,0.0018445668916521841,0.0017163408764379832,0.8960533527391813,-0.12720986277356588,0.0,3.0,-0.12720986277356588,10.13050796987201,8.745401465758448,0.000920852167032819,294.0,267.0,4.755102040816326,0.14232209737827714,0.3037542662116041,2993.0,8215.0,7.0,4.0,2.0,8.0,0.0,2.0,,8.0,0.00048691418137553256,0.00024345709068776628,0.0,0.5,2.0,0.0,1.0,4.0,8.0,2.0,2.0
30,2985.0,8215.0,5.5041876046901175,0.0018445668916521841,0.0017163408764379832,0.8960533527391813,-0.12720986277356588,0.0,3.0,-0.12720986277356588,10.13050796987201,8.745401465758448,0.000920852167032819,294.0,267.0,4.755102040816326,0.14232209737827714,0.3037542662116041,2993.0,8215.0,7.0,4.0,2.0,8.0,0.0,2.0,,8.0,0.00048691418137553256,0.00024345709068776628,0.0,0.5,2.0,0.0,1.0,4.0,8.0,2.0,2.0
31,2992.0,8241.0,5.508689839572193,0.0018417552121605457,0.0017195108002724332,0.8992267729173472,-0.12957218577967555,0.0,3.0,-0.12957218577967555,10.135234197233173,8.7586045524496,0.0009194527653064142,294.0,267.0,4.775510204081633,0.14232209737827714,0.3037542662116041,3014.0,8241.0,7.0,4.0,2.0,9.0,0.0,2.0,0.0,9.0,0.00048537798810823927,0.00024268899405411964,0.0,0.5,2.25,0.0,1.0,4.5,9.0,2.0,2.0
32,2992.0,8241.0,5.508689839572193,0.0018417552121605457,0.0017195108002724332,0.8992267729173472,-0.12957218577967555,0.0,3.0,-0.12957218577967555,10.135234197233173,8.7586045524496,0.0009194527653064142,294.0,267.0,4.775510204081633,0.14232209737827714,0.3037542662116041,3014.0,8241.0,7.0,4.0,2.0,9.0,0.0,2.0,,9.0,0.00048537798810823927,0.00024268899405411964,0.0,0.5,2.25,0.0,1.0,4.5,9.0,2.0,2.0
33,2999.0,8267.0,5.513171057019006,0.00183894965210774,0.0017225883807937834,0.9023804932298425,-0.1319086274040295,0.0,3.0,-0.1319086274040295,10.13987209989618,8.771290747667894,0.0009180563800248632,294.0,267.0,4.795918367346939,0.14232209737827714,0.3037542662116041,3035.0,8267.0,7.0,4.0,2.0,10.0,0.0,2.0,0.0,10.0,0.00048385145760251603,0.00024192572880125802,0.0,0.5,2.5,0.0,1.0,5.0,10.0,2.0,2.0
34,2999.0,8267.0,5.513171057019006,0.00183894965210774,0.0017225883807937834,0.9023804932298425,-0.1319086274040295,0.0,3.0,-0.1319086274040295,10.13987209989618,8.771290747667894,0.0009180563800248632,294.0,267.0,4.795918367346939,0.14232209737827714,0.3037542662116041,3035.0,8267.0,7.0,4.0,2.0,10.0,0.0,2.0,,10.0,0.00048385145760251603,0.00024192572880125802,0.0,0.5,2.5,0.0,1.0,5.0,10.0,2.0,2.0
35,2999.0,8267.0,5.513171057019006,0.00183894965210774,0.0017225883807937834,0.9023804932298425,-0.1319086274040295,0.0,3.0,-0.1319086274040295,10.13987209989618,8.771290747667894,0.0009180563800248632,294.0,267.0,4.795918367346939,0.14232209737827714,0.3037542662116041,3035.0,8267.0,7.0,4.0,2.0,10.0,0.0,2.0,,10.0,0.00048385145760251603,0.00024192572880125802,0.0,0.5,2.5,0.0,1.0,5.0,10.0,2.0,2.0
36,2999.0,8267.0,5.513171057019006,0.00183894965210774,0.0017225883807937834,0.9023804932298425,-0.1319086274040295,0.0,3.0,-0.1319086274040295,10.13987209989618,8.771290747667894,0.0009180563800248632,294.0,267.0,4.795918367346939,0.14232209737827714,0.3037542662116041,3035.0,8267.0,7.0,4.0,2.0,10.0,0.0,2.0,,10.0,0.00048385145760251603,0.00024192572880125802,0.0,0.5,2.5,0.0,1.0,5.0,10.0,2.0,2.0
37,3006.0,8293.0,5.517631403858949,0.0018361502175903326,0.00172604290515928,0.9056744235161396,-0.13433390779521337,0.0,3.0,-0.13433390779521337,10.144323636126344,8.784159810760464,0.0009166630146227837,294.0,267.0,4.816326530612245,0.14232209737827714,0.3037542662116041,3056.0,8293.0,7.0,4.0,2.0,11.0,0.0,2.0,0.0,11.0,0.0004823344989750392,0.0002411672494875196,0.0,0.5,2.75,0.0,1.0,5.5,11.0,2.0,2.0
38,3006.0,8293.0,5.517631403858949,0.0018361502175903326,0.00172604290515928,0.9056744235161396,-0.13433390779521337,0.0,3.0,-0.13433390779521337,10.144323636126344,8.784159810760464,0.0009166630146227837,294.0,267.0,4.816326530612245,0.14232209737827714,0.3037542662116041,3056.0,8293.0,7.0,4.0,2.0,11.0,0.0,2.0,,11.0,0.0004823344989750392,0.0002411672494875196,0.0,0.5,2.75,0.0,1.0,5.5,11.0,2.0,2.0
39,3013.0,8319.0,5.522071025555924,0.0018333569141951937,0.0017294007372476194,0.9089498875450412,-0.13670088979497189,0.0,3.0,-0.13670088979497189,10.1486984070506,8.796555380662854,0.0009152726722756538,294.0,267.0,4.836734693877551,0.14232209737827714,0.3037542662116041,3077.0,8319.0,7.0,4.0,2.0,12.0,0.0,2.0,0.0,12.0,0.0004808270224786633,0.00024041351123933166,0.0,0.5,3.0,0.0,1.0,6.0,12.0,2.0,2.0
40,3013.0,8319.0,5.522071025555924,0.0018333569141951937,0.0017294007372476194,0.9089498875450412,-0.13670088979497189,0.0,3.0,-0.13670088979497189,10.1486984070506,8.796555380662854,0.0009152726722756538,294.0,267.0,4.836734693877551,0.14232209737827714,0.3037542662116041,3077.0,8319.0,7.0,4.0,2.0,12.0,0.0,2.0,,12.0,0.0004808270224786633,0.00024041351123933166,0.0,0.5,3.0,0.0,1.0,6.0,12.0,2.0,2.0
41,3013.0,8319.0,5.522071025555924,0.0018333569141951937,0.0017294007372476194,0.9089498875450412,-0.13670088979497189,0.0,3.0,-0.13670088979497189,10.1486984070506,8.796555380662854,0.0009152726722756538,294.0,267.0,4.836734693877551,0.14232209737827714,0.3037542662116041,3077.0,8319.0,7.0,4.0,2.0,12.0,0.0,2.0,,12.0,0.0004808270224786633,0.00024041351123933166,0.0,0.5,3.0,0.0,1.0,6.0,12.0,2.0,2.0
42,3013.0,8319.0,5.522071025555924,0.0018333569141951937,0.0017294007372476194,0.9089498875450412,-0.13670088979497189,0.0,3.0,-0.13670088979497189,10.1486984070506,8.796555380662854,0.0009152726722756538,294.0,267.0,4.836734693877551,0.14232209737827714,0.3037542662116041,3077.0,8319.0,7.0,4.0,2.0,12.0,0.0,2.0,,12.0,0.0004808270224786633,0.00024041351123933166,0.0,0.5,3.0,0.0,1.0,6.0,12.0,2.0,2.0
43,3020.0,8345.0,5.526490066225166,0.0018305697470106547,0.0017331305792324249,0.9123974658834878,-0.1390991854605986,0.0,3.0,-0.1390991854605986,10.152911126229878,8.809139423571018,0.0009138853559054427,294.0,267.0,4.857142857142857,0.14232209737827714,0.3037542662116041,3098.0,8345.0,7.0,4.0,2.0,13.0,0.0,2.0,0.0,13.0,0.0004793289394847214,0.0002396644697423607,0.0,0.5,3.25,0.0,1.0,6.5,13.0,2.0,2.0
44,3020.0,8345.0,5.526490066225166,0.0018305697470106547,0.0017331305792324249,0.9123974658834878,-0.1390991854605986,0.0,3.0,-0.1390991854605986,10.152911126229878,8.809139423571018,0.0009138853559054427,294.0,267.0,4.857142857142857,0.14232209737827714,0.3037542662116041,3098.0,8345.0,7.0,4.0,2.0,13.0,0.0,2.0,,13.0,0.0004793289394847214,0.0002396644697423607,0.0,0.5,3.25,0.0,1.0,6.5,13.0,2.0,2.0
45,3027.0,8371.0,5.530888668648827,0.0018277887206374181,0.0017367602070796427,0.9158269398134604,-0.1414101061330915,0.0,3.0,-0.1414101061330915,10.157056054189677,8.821286540569655,0.0009125010681861267,294.0,267.0,4.877551020408164,0.14232209737827714,0.3037542662116041,3119.0,8371.0,7.0,4.0,2.0,14.0,0.0,2.0,0.0,14.0,0.00047784016246565523,0.00023892008123282762,0.0,0.5,3.5,0.0,1.0,7.0,14.0,2.0,2.0
46,3027.0,8371.0,5.530888668648827,0.0018277887206374181,0.0017367602070796427,0.9158269398134604,-0.1414101061330915,0.0,3.0,-0.1414101061330915,10.157056054189677,8.821286540569655,0.0009125010681861267,294.0,267.0,4.877551020408164,0.14232209737827714,0.3037542662116041,3119.0,8371.0,7.0,4.0,2.0,14.0,0.0,2.0,,14.0,0.00047784016246565523,0.00023892008123282762,0.0,0.5,3.5,0.0,1.0,7.0,14.0,2.0,2.0
47,3027.0,8371.0,5.530888668648827,0.0018277887206374181,0.0017367602070796427,0.9158269398134604,-0.1414101061330915,0.0,3.0,-0.1414101061330915,10.157056054189677,8.821286540569655,0.0009125010681861267,294.0,267.0,4.877551020408164,0.14232209737827714,0.3037542662116041,3119.0,8371.0,7.0,4.0,2.0,14.0,0.0,2.0,,14.0,0.00047784016246565523,0.00023892008123282762,0.0,0.5,3.5,0.0,1.0,7.0,14.0,2.0,2.0
48,3027.0,8371.0,5.530888668648827,0.0018277887206374181,0.0017367602070796427,0.9158269398134604,-0.1414101061330915,0.0,3.0,-0.1414101061330915,10.157056054189677,8.821286540569655,0.0009125010681861267,294.0,267.0,4.877551020408164,0.14232209737827714,0.3037542662116041,3119.0,8371.0,7.0,4.0,2.0,14.0,0.0,2.0,,14.0,0.00047784016246565523,0.00023892008123282762,0.0,0.5,3.5,0.0,1.0,7.0,14.0,2.0,2.0
49,3034.0,8397.0,5.535266974291365,0.0018250138391992631,0.0017407562997376203,0.9194479426800275,-0.14370005464688962,0.0,3.0,-0.14370005464688962,10.161057828679462,8.833621541425229,0.0009111198115490927,294.0,267.0,4.8979591836734695,0.14232209737827714,0.3037542662116041,3140.0,8397.0,7.0,4.0,2.0,15.0,0.0,2.0,0.0,15.0,0.00047636060497796833,0.00023818030248898416,0.0,0.5,3.75,0.0,1.0,7.5,15.0,2.0,2.0
50,3034.0,8397.0,5.535266974291365,0.0018250138391992631,0.0017407562997376203,0.9194479426800275,-0.14370005464688962,0.0,3.0,-0.14370005464688962,10.161057828679462,8.833621541425229,0.0009111198115490927,294.0,267.0,4.8979591836734695,0.14232209737827714,0.3037542662116041,3140.0,8397.0,7.0,4.0,2.0,15.0,0.0,2.0,,15.0,0.00047636060497796833,0.00023818030248898416,0.0,0.5,3.75,0.0,1.0,7.5,15.0,2.0,2.0
51,3041.0,8423.0,5.539625123314699,0.0018222451063535192,0.0017446492193917233,0.9230507369301181,-0.14587963926386488,0.0,3.0,-0.14587963926386488,10.164999021278938,8.845550933631921,0.0009097415881884334,294.0,267.0,4.918367346938775,0.14232209737827714,0.3037542662116041,3161.0,8423.0,7.0,4.0,2.0,16.0,0.0,2.0,0.0,16.0,0.0004748901816454945,0.00023744509082274725,0.0,0.5,4.0,0.0,1.0,8.0,16.0,2.0,2.0
52,3041.0,8423.0,5.539625123314699,0.0018222451063535192,0.0017446492193917233,0.9230507369301181,-0.14587963926386488,0.0,3.0,-0.14587963926386488,10.164999021278938,8.845550933631921,0.0009097415881884334,294.0,267.0,4.918367346938775,0.14232209737827714,0.3037542662116041,3161.0,8423.0,7.0,4.0,2.0,16.0,0.0,2.0,,16.0,0.0004748901816454945,0.00023744509082274725,0.0,0.5,4.0,0.0,1.0,8.0,16.0,2.0,2.0
53,3041.0,8423.0,5.539625123314699,0.0018222451063535192,0.0017446492193917233,0.9230507369301181,-0.14587963926386488,0.0,3.0,-0.14587963926386488,10.164999021278938,8.845550933631921,0.0009097415881884334,294.0,267.0,4.918367346938775,0.14232209737827714,0.3037542662116041,3161.0,8423.0,7.0,4.0,2.0,16.0,0.0,2.0,,16.0,0.0004748901816454945,0.00023744509082274725,0.0,0.5,4.0,0.0,1.0,8.0,16.0,2.0,2.0
54,3041.0,8423.0,5.539625123314699,0.0018222451063535192,0.0017446492193917233,0.9230507369301181,-0.14587963926386488,0.0,3.0,-0.14587963926386488,10.164999021278938,8.845550933631921,0.0009097415881884334,294.0,267.0,4.918367346938775,0.14232209737827714,0.3037542662116041,3161.0,8423.0,7.0,4.0,2.0,16.0,0.0,2.0,,16.0,0.0004748901816454945,0.00023744509082274725,0.0,0.5,4.0,0.0,1.0,8.0,16.0,2.0,2.0
55,3048.0,8449.0,5.543963254593176,0.0018194825253013377,0.0017489028471726156,0.9268572650978156,-0.14799459593155673,0.0,3.0,-0.14799459593155673,10.168812205905326,8.85766393418001,0.0009083664000661335,294.0,267.0,4.938775510204081,0.14232209737827714,0.3037542662116041,3182.0,8449.0,7.0,4.0,2.0,17.0,0.0,2.0,0.0,17.0,0.0004734288081429755,0.00023671440407148776,0.0,0.5,4.25,0.0,1.0,8.5,17.0,2.0,2.0
56,3048.0,8449.0,5.543963254593176,0.0018194825253013377,0.0017489028471726156,0.9268572650978156,-0.14799459593155673,0.0,3.0,-0.14799459593155673,10.168812205905326,8.85766393418001,0.0009083664000661335,294.0,267.0,4.938775510204081,0.14232209737827714,0.3037542662116041,3182.0,8449.0,7.0,4.0,2.0,17.0,0.0,2.0,,17.0,0.0004734288081429755,0.00023671440407148776,0.0,0.5,4.25,0.0,1.0,8.5,17.0,2.0,2.0
57,3055.0,8475.0,5.548281505728315,0.0018167260987977452,0.001753050746332934,0.9306452156557551,-0.14998434404900557,0.0,3.0,-0.14998434404900557,10.172570749565555,8.86939852702484,0.0009069942489171517,294.0,267.0,4.959183673469388,0.14232209737827714,0.3037542662116041,3203.0,8475.0,7.0,4.0,2.0,18.0,0.0,2.0,0.0,18.0,0.00047197640117994103,0.00023598820058997051,0.0,0.5,4.5,0.0,1.0,9.0,18.0,2.0,2.0
58,3055.0,8475.0,5.548281505728315,0.0018167260987977452,0.001753050746332934,0.9306452156557551,-0.14998434404900557,0.0,3.0,-0.14998434404900557,10.172570749565555,8.86939852702484,0.0009069942489171517,294.0,267.0,4.959183673469388,0.14232209737827714,0.3037542662116041,3203.0,8475.0,7.0,4.0,2.0,18.0,0.0,2.0,,18.0,0.00047197640117994103,0.00023598820058997051,0.0,0.5,4.5,0.0,1.0,9.0,18.0,2.0,2.0
59,3055.0,8475.0,5.548281505728315,0.0018167260987977452,0.001753050746332934,0.9306452156557551,-0.14998434404900557,0.0,3.0,-0.14998434404900557,10.172570749565555,8.86939852702484,0.0009069942489171517,294.0,267.0,4.959183673469388,0.14232209737827714,0.3037542662116041,3203.0,8475.0,7.0,4.0,2.0,18.0,0.0,2.0,,18.0,0.00047197640117994103,0.00023598820058997051,0.0,0.5,4.5,0.0,1.0,9.0,18.0,2.0,2.0
60,3055.0,8475.0,5.548281505728315,0.0018167260987977452,0.001753050746332934,0.9306452156557551,-0.14998434404900557,0.0,3.0,-0.14998434404900557,10.172570749565555,8.86939852702484,0.0009069942489171517,294.0,267.0,4.959183673469388,0.14232209737827714,0.3037542662116041,3203.0,8475.0,7.0,4.0,2.0,18.0,0.0,2.0,,18.0,0.00047197640117994103,0.00023598820058997051,0.0,0.5,4.5,0.0,1.0,9.0,18.0,2.0,2.0
61,3062.0,8501.0,5.552580013063357,0.001813975829161502,0.0017575535638466025,0.9346447011956278,-0.15187678914601052,0.0,3.0,-0.15187678914601052,10.176213714974114,8.88131022360454,0.0009056251362544001,294.0,267.0,4.979591836734694,0.14232209737827714,0.3037542662116041,3224.0,8501.0,7.0,4.0,2.0,19.0,0.0,2.0,0.0,19.0,0.00047053287848488413,0.00023526643924244207,0.0,0.5,4.75,0.0,1.0,9.5,19.0,2.0,2.0
62,3062.0,8501.0,5.552580013063357,0.001813975829161502,0.0017575535638466025,0.9346447011956278,-0.15187678914601052,0.0,3.0,-0.15187678914601052,10.176213714974114,8.88131022360454,0.0009056251362544001,294.0,267.0,4.979591836734694,0.14232209737827714,0.3037542662116041,3224.0,8501.0,7.0,4.0,2.0,19.0,0.0,2.0,,19.0,0.00047053287848488413,0.00023526643924244207,0.0,0.5,4.75,0.0,1.0,9.5,19.0,2.0,2.0
63,3069.0,8527.0,5.5568589116976215,0.0018112317182847524,0.0017619483990647504,0.9386250834954643,-0.15363818964153772,0.0,3.0,-0.15363818964153772,10.179807032724721,8.892867427619464,0.000904259063373622,294.0,267.0,5.0,0.14232209737827714,0.3037542662116041,3245.0,8527.0,7.0,4.0,2.0,20.0,0.0,2.0,0.0,20.0,0.00046909815878972674,0.00023454907939486337,0.0,0.5,5.0,0.0,1.0,10.0,20.0,2.0,2.0
64,3069.0,8527.0,5.5568589116976215,0.0018112317182847524,0.0017619483990647504,0.9386250834954643,-0.15363818964153772,0.0,3.0,-0.15363818964153772,10.179807032724721,8.892867427619464,0.000904259063373622,294.0,267.0,5.0,0.14232209737827714,0.3037542662116041,3245.0,8527.0,7.0,4.0,2.0,20.0,0.0,2.0,,20.0,0.00046909815878972674,0.00023454907939486337,0.0,0.5,5.0,0.0,1.0,10.0,20.0,2.0,2.0
65,3069.0,8527.0,5.5568589116976215,0.0018112317182847524,0.0017619483990647504,0.9386250834954643,-0.15363818964153772,0.0,3.0,-0.15363818964153772,10.179807032724721,8.892867427619464,0.000904259063373622,294.0,267.0,5.0,0.14232209737827714,0.3037542662116041,3245.0,8527.0,7.0,4.0,2.0,20.0,0.0,2.0,,20.0,0.00046909815878972674,0.00023454907939486337,0.0,0.5,5.0,0.0,1.0,10.0,20.0,2.0,2.0
66,3069.0,8527.0,5.5568589116976215,0.0018112317182847524,0.0017619483990647504,0.9386250834954643,-0.15363818964153772,0.0,3.0,-0.15363818964153772,10.179807032724721,8.892867427619464,0.000904259063373622,294.0,267.0,5.0,0.14232209737827714,0.3037542662116041,3245.0,8527.0,7.0,4.0,2.0,20.0,0.0,2.0,,20.0,0.00046909815878972674,0.00023454907939486337,0.0,0.5,5.0,0.0,1.0,10.0,20.0,2.0,2.0
67,3076.0,8553.0,5.56111833550065,0.0018084937676424878,0.001766692413636285,0.942821988359114,-0.15528143856133858,0.0,3.0,-0.15528143856133858,10.183295168533759,8.904593900035465,0.0009028960313581721,294.0,267.0,5.020408163265306,0.14232209737827714,0.3037542662116041,3266.0,8553.0,7.0,4.0,2.0,21.0,0.0,2.0,0.0,21.0,0.00046767216181456796,0.00023383608090728398,0.0,0.5,5.25,0.0,1.0,10.5,21.0,2.0,2.0
68,3076.0,8553.0,5.56111833550065,0.0018084937676424878,0.001766692413636285,0.942821988359114,-0.15528143856133858,0.0,3.0,-0.15528143856133858,10.183295168533759,8.904593900035465,0.0009028960313581721,294.0,267.0,5.020408163265306,0.14232209737827714,0.3037542662116041,3266.0,8553.0,7.0,4.0,2.0,21.0,0.0,2.0,,21.0,0.00046767216181456796,0.00023383608090728398,0.0,0.5,5.25,0.0,1.0,10.5,21.0,2.0,2.0
69,3083.0,8579.0,5.565358417126176,0.0018057619783018086,0.0017713264272713972,0.9469991695931359,-0.15679635102845768,0.0,3.0,-0.15679635102845768,10.186737920285221,8.91598712974557,0.0009015360410836991,294.0,267.0,5.040816326530612,0.14232209737827714,0.3037542662116041,3287.0,8579.0,7.0,4.0,2.0,22.0,0.0,2.0,0.0,22.0,0.0004662548082527101,0.00023312740412635504,0.0,0.5,5.5,0.0,1.0,11.0,22.0,2.0,2.0
70,3083.0,8579.0,5.565358417126176,0.0018057619783018086,0.0017713264272713972,0.9469991695931359,-0.15679635102845768,0.0,3.0,-0.15679635102845768,10.186737920285221,8.91598712974557,0.0009015360410836991,294.0,267.0,5.040816326530612,0.14232209737827714,0.3037542662116041,3287.0,8579.0,7.0,4.0,2.0,22.0,0.0,2.0,,22.0,0.0004662548082527101,0.00023312740412635504,0.0,0.5,5.5,0.0,1.0,11.0,22.0,2.0,2.0
71,3083.0,8579.0,5.565358417126176,0.0018057619783018086,0.0017713264272713972,0.9469991695931359,-0.15679635102845768,0.0,3.0,-0.15679635102845768,10.186737920285221,8.91598712974557,0.0009015360410836991,294.0,267.0,5.040816326530612,0.14232209737827714,0.3037542662116041,3287.0,8579.0,7.0,4.0,2.0,22.0,0.0,2.0,,22.0,0.0004662548082527101,0.00023312740412635504,0.0,0.5,5.5,0.0,1.0,11.0,22.0,2.0,2.0
72,3083.0,8579.0,5.565358417126176,0.0018057619783018086,0.0017713264272713972,0.9469991695931359,-0.15679635102845768,0.0,3.0,-0.15679635102845768,10.186737920285221,8.91598712974557,0.0009015360410836991,294.0,267.0,5.040816326530612,0.14232209737827714,0.3037542662116041,3287.0,8579.0,7.0,4.0,2.0,22.0,0.0,2.0,,22.0,0.0004662548082527101,0.00023312740412635504,0.0,0.5,5.5,0.0,1.0,11.0,22.0,2.0,2.0
73,3090.0,8605.0,5.56957928802589,0.0018030363509310102,0.001776303972255933,0.9513959971345726,-0.15818341241691117,0.0,3.0,-0.15818341241691117,10.190084321542962,8.927541038631393,0.0009001790932227354,294.0,267.0,5.061224489795919,0.14232209737827714,0.3037542662116041,3308.0,8605.0,7.0,4.0,2.0,23.0,0.0,2.0,0.0,23.0,0.00046484601975595586,0.00023242300987797793,0.0,0.5,5.75,0.0,1.0,11.5,23.0,2.0,2.0
74,3090.0,8605.0,5.56957928802589,0.0018030363509310102,0.001776303972255933,0.9513959971345726,-0.15818341241691117,0.0,3.0,-0.15818341241691117,10.190084321542962,8.927541038631393,0.0009001790932227354,294.0,267.0,5.061224489795919,0.14232209737827714,0.3037542662116041,3308.0,8605.0,7.0,4.0,2.0,23.0,0.0,2.0,,23.0,0.00046484601975595586,0.00023242300987797793,0.0,0.5,5.75,0.0,1.0,11.5,23.0,2.0,2.0
75,3097.0,8631.0,5.573781078463028,0.001800316885808472,0.0017811696869063122,0.9557724231302527,-0.15945184055449707,0.0,3.0,-0.15945184055449707,10.1933890265601,8.938780761360098,0.0008988251882491926,294.0,267.0,5.081632653061225,0.14232209737827714,0.3037542662116041,3329.0,8631.0,7.0,4.0,2.0,24.0,0.0,2.0,0.0,24.0,0.0004634457189201715,0.00023172285946008574,0.0,0.5,6.0,0.0,1.0,12.0,24.0,2.0,2.0
76,3097.0,8631.0,5.573781078463028,0.001800316885808472,0.0017811696869063122,0.9557724231302527,-0.15945184055449707,0.0,3.0,-0.15945184055449707,10.1933890265601,8.938780761360098,0.0008988251882491926,294.0,267.0,5.081632653061225,0.14232209737827714,0.3037542662116041,3329.0,8631.0,7.0,4.0,2.0,24.0,0.0,2.0,,24.0,0.0004634457189201715,0.00023172285946008574,0.0,0.5,6.0,0.0,1.0,12.0,24.0,2.0,2.0
77,3097.0,8631.0,5.573781078463028,0.001800316885808472,0.0017811696869063122,0.9557724231302527,-0.15945184055449707,0.0,3.0,-0.15945184055449707,10.1933890265601,8.938780761360098,0.0008988251882491926,294.0,267.0,5.081632653061225,0.14232209737827714,0.3037542662116041,3329.0,8631.0,7.0,4.0,2.0,24.0,0.0,2.0,,24.0,0.0004634457189201715,0.00023172285946008574,0.0,0.5,6.0,0.0,1.0,12.0,24.0,2.0,2.0
78,3097.0,8631.0,5.573781078463028,0.001800316885808472,0.0017811696869063122,0.9557724231302527,-0.15945184055449707,0.0,3.0,-0.15945184055449707,10.1933890265601,8.938780761360098,0.0008988251882491926,294.0,267.0,5.081632653061225,0.14232209737827714,0.3037542662116041,3329.0,8631.0,7.0,4.0,2.0,24.0,0.0,2.0,,24.0,0.0004634457189201715,0.00023172285946008574,0.0,0.5,6.0,0.0,1.0,12.0,24.0,2.0,2.0
79,3104.0,8657.0,5.577963917525773,0.0017976035828313804,0.0017863733948743625,0.9603703471643199,-0.16059203694903795,0.0,3.0,-0.16059203694903795,10.196604980700528,8.95017220099389,0.0008974743264427676,294.0,267.0,5.1020408163265305,0.14232209737827714,0.3037542662116041,3350.0,8657.0,7.0,4.0,2.0,25.0,0.0,2.0,0.0,25.0,0.0004620538292711101,0.00023102691463555504,0.0,0.5,6.25,0.0,1.0,12.5,25.0,2.0,2.0
80,3104.0,8657.0,5.577963917525773,0.0017976035828313804,0.0017863733948743625,0.9603703471643199,-0.16059203694903795,0.0,3.0,-0.16059203694903795,10.196604980700528,8.95017220099389,0.0008974743264427676,294.0,267.0,5.1020408163265305,0.14232209737827714,0.3037542662116041,3350.0,8657.0,7.0,4.0,2.0,25.0,0.0,2.0,,25.0,0.0004620538292711101,0.00023102691463555504,0.0,0.5,6.25,0.0,1.0,12.5,25.0,2.0,2.0
81,3111.0,8683.0,5.58212793314047,0.0017948964415242666,0.0017914635999976948,0.9649471575483141,-0.16162814571870107,0.0,3.0,-0.16162814571870107,10.199782462859067,8.96126668245666,0.0008961265078932596,294.0,267.0,5.122448979591836,0.14232209737827714,0.3037542662116041,3371.0,8683.0,7.0,4.0,2.0,26.0,0.0,2.0,0.0,26.0,0.00046067027525048944,0.00023033513762524472,0.0,0.5,6.5,0.0,1.0,13.0,26.0,2.0,2.0
82,3111.0,8683.0,5.58212793314047,0.0017948964415242666,0.0017914635999976948,0.9649471575483141,-0.16162814571870107,0.0,3.0,-0.16162814571870107,10.199782462859067,8.96126668245666,0.0008961265078932596,294.0,267.0,5.122448979591836,0.14232209737827714,0.3037542662116041,3371.0,8683.0,7.0,4.0,2.0,26.0,0.0,2.0,,26.0,0.00046067027525048944,0.00023033513762524472,0.0,0.5,6.5,0.0,1.0,13.0,26.0,2.0,2.0
83,3111.0,8683.0,5.58212793314047,0.0017948964415242666,0.0017914635999976948,0.9649471575483141,-0.16162814571870107,0.0,3.0,-0.16162814571870107,10.199782462859067,8.96126668245666,0.0008961265078932596,294.0,267.0,5.122448979591836,0.14232209737827714,0.3037542662116041,3371.0,8683.0,7.0,4.0,2.0,26.0,0.0,2.0,,26.0,0.00046067027525048944,0.00023033513762524472,0.0,0.5,6.5,0.0,1.0,13.0,26.0,2.0,2.0
84,3111.0,8683.0,5.58212793314047,0.0017948964415242666,0.0017914635999976948,0.9649471575483141,-0.16162814571870107,0.0,3.0,-0.16162814571870107,10.199782462859067,8.96126668245666,0.0008961265078932596,294.0,267.0,5.122448979591836,0.14232209737827714,0.3037542662116041,3371.0,8683.0,7.0,4.0,2.0,26.0,0.0,2.0,,26.0,0.00046067027525048944,0.00023033513762524472,0.0,0.5,6.5,0.0,1.0,13.0,26.0,2.0,2.0
85,3111.0,8683.0,5.58212793314047,0.0017948964415242666,0.0017914635999976948,0.9649471575483141,-0.16162814571870107,0.0,3.0,-0.16162814571870107,10.199782462859067,8.96126668245666,0.0008961265078932596,294.0,267.0,5.122448979591836,0.14232209737827714,0.3037542662116041,3371.0,8683.0,7.0,4.0,2.0,26.0,0.0,2.0,,26.0,0.00046067027525048944,0.00023033513762524472,0.0,0.5,6.5,0.0,1.0,13.0,26.0,2.0,2.0
86,3111.0,8683.0,5.58212793314047,0.0017948964415242666,0.0017914635999976948,0.9649471575483141,-0.16162814571870107,0.0,3.0,-0.16162814571870107,10.199782462859067,8.96126668245666,0.0008961265078932596,294.0,267.0,5.122448979591836,0.14232209737827714,0.3037542662116041,3371.0,8683.0,7.0,4.0,2.0,26.0,0.0,2.0,,26.0,0.00046067027525048944,0.00023033513762524472,0.0,0.5,6.5,0.0,1.0,13.0,26.0,2.0,2.0
87,3111.0,8683.0,5.58212793314047,0.0017948964415242666,0.0017914635999976948,0.9649471575483141,-0.16162814571870107,0.0,3.0,-0.16162814571870107,10.199782462859067,8.96126668245666,0.0008961265078932596,294.0,267.0,5.122448979591836,0.14232209737827714,0.3037542662116041,3371.0,8683.0,7.0,4.0,2.0,26.0,0.0,2.0,,26.0,0.00046067027525048944,0.00023033513762524472,0.0,0.5,6.5,0.0,1.0,13.0,26.0,2.0,2.0
88,3111.0,8683.0,5.58212793314047,0.0017948964415242666,0.0017914635999976948,0.9649471575483141,-0.16162814571870107,0.0,3.0,-0.16162814571870107,10.199782462859067,8.96126668245666,0.0008961265078932596,294.0,267.0,5.122448979591836,0.14232209737827714,0.3037542662116041,3371.0,8683.0,7.0,4.0,2.0,26.0,0.0,2.0,,26.0,0.00046067027525048944,0.00023033513762524472,0.0,0.5,6.5,0.0,1.0,13.0,26.0,2.0,2.0
89,3111.0,8683.0,5.58212793314047,0.0017948964415242666,0.0017914635999976948,0.9649471575483141,-0.16162814571870107,0.0,3.0,-0.16162814571870107,10.199782462859067,8.96126668245666,0.0008961265078932596,294.0,267.0,5.122448979591836,0.14232209737827714,0.3037542662116041,3371.0,8683.0,7.0,4.0,2.0,26.0,0.0,2.0,,26.0,0.00046067027525048944,0.00023033513762524472,0.0,0.5,6.5,0.0,1.0,13.0,26.0,2.0,2.0
90,3118.0,8709.0,5.58627325208467,0.0017921954610473753,0.0017968863785951955,0.9697464279964404,-0.16254254005763444,0.0,3.0,-0.16254254005763444,10.202877805503512,8.972503801500947,0.0008947817325048005,294.0,267.0,5.142857142857143,0.14232209737827714,0.3037542662116041,3392.0,8709.0,7.0,4.0,2.0,27.0,0.0,2.0,0.0,27.0,0.00045929498220231943,0.00022964749110115972,0.0,0.5,6.75,0.0,1.0,13.5,27.0,2.0,2.0
91,3118.0,8709.0,5.58627325208467,0.0017921954610473753,0.0017968863785951955,0.9697464279964404,-0.16254254005763444,0.0,3.0,-0.16254254005763444,10.202877805503512,8.972503801500947,0.0008947817325048005,294.0,267.0,5.142857142857143,0.14232209737827714,0.3037542662116041,3392.0,8709.0,7.0,4.0,2.0,27.0,0.0,2.0,,27.0,0.00045929498220231943,0.00022964749110115972,0.0,0.5,6.75,0.0,1.0,13.5,27.0,2.0,2.0
92,3125.0,8735.0,5.5904,0.0017895006402048653,0.0018021941151860176,0.9745238536269372,-0.163369992469165,0.0,3.0,-0.163369992469165,10.205937520863596,8.983459647734,0.00089344,294.0,267.0,5.163265306122449,0.14232209737827714,0.3037542662116041,3413.0,8735.0,7.0,4.0,2.0,28.0,0.0,2.0,0.0,28.0,0.0004579278763594734,0.0002289639381797367,0.0,0.5,7.0,0.0,1.0,14.0,28.0,2.0,2.0
93,3125.0,8735.0,5.5904,0.0017895006402048653,0.0018021941151860176,0.9745238536269372,-0.163369992469165,0.0,3.0,-0.163369992469165,10.205937520863596,8.983459647734,0.00089344,294.0,267.0,5.163265306122449,0.14232209737827714,0.3037542662116041,3413.0,8735.0,7.0,4.0,2.0,28.0,0.0,2.0,,28.0,0.0004579278763594734,0.0002289639381797367,0.0,0.5,7.0,0.0,1.0,14.0,28.0,2.0,2.0
94,3132.0,8761.0,5.594508301404853,0.0017868119774528432,0.0018078291262154501,0.9795240662622309,-0.1640866724724836,0.0,3.0,-0.1640866724724836,10.208920902315713,8.99454910884903,0.0008921013099240078,294.0,267.0,5.183673469387755,0.14232209737827714,0.3037542662116041,3434.0,8761.0,7.0,4.0,2.0,29.0,0.0,2.0,0.0,29.0,0.0004565688848304988,0.0002282844424152494,0.0,0.5,7.25,0.0,1.0,14.5,29.0,2.0,2.0
95,3132.0,8761.0,5.594508301404853,0.0017868119774528432,0.0018078291262154501,0.9795240662622309,-0.1640866724724836,0.0,3.0,-0.1640866724724836,10.208920902315713,8.99454910884903,0.0008921013099240078,294.0,267.0,5.183673469387755,0.14232209737827714,0.3037542662116041,3434.0,8761.0,7.0,4.0,2.0,29.0,0.0,2.0,,29.0,0.0004565688848304988,0.0002282844424152494,0.0,0.5,7.25,0.0,1.0,14.5,29.0,2.0,2.0
96,3139.0,8787.0,5.598598279706913,0.001784129470907238,0.0018133476718342708,0.984501693920624,-0.1647342119884322,0.0,3.0,-0.1647342119884322,10.211871185895887,9.005371666933208,0.000890765661648494,294.0,267.0,5.204081632653061,0.14232209737827714,0.3037542662116041,3455.0,8787.0,7.0,4.0,2.0,30.0,0.0,2.0,0.0,30.0,0.00045521793558666213,0.00022760896779333106,0.0,0.5,7.5,0.0,1.0,15.0,30.0,2.0,2.0
97,3139.0,8787.0,5.598598279706913,0.001784129470907238,0.0018133476718342708,0.984501693920624,-0.1647342119884322,0.0,3.0,-0.1647342119884322,10.211871185895887,9.005371666933208,0.000890765661648494,294.0,267.0,5.204081632653061,0.14232209737827714,0.3037542662116041,3455.0,8787.0,7.0,4.0,2.0,30.0,0.0,2.0,,30.0,0.00045521793558666213,0.00022760896779333106,0.0,0.5,7.5,0.0,1.0,15.0,30.0,2.0,2.0
98,3146.0,8813.0,5.602670057215512,0.001781453118351514,0.001819188313333409,0.9897019745358538,-0.16528419703955977,0.0,3.0,-0.16528419703955977,10.214750275002668,9.016318991742969,0.0008894330543755499,294.0,267.0,5.224489795918367,0.14232209737827714,0.3037542662116041,3476.0,8813.0,7.0,4.0,2.0,31.0,0.0,2.0,0.0,31.0,0.0004538749574492227,0.00022693747872461136,0.0,0.5,7.75,0.0,1.0,15.5,31.0,2.0,2.0
99,3146.0,8813.0,5.602670057215512,0.001781453118351514,0.001819188313333409,0.9897019745358538,-0.16528419703955977,0.0,3.0,-0.16528419703955977,10.214750275002668,9.016318991742969,0.0008894330543755499,294.0,267.0,5.224489795918367,0.14232209737827714,0.3037542662116041,3476.0,8813.0,7.0,4.0,2.0,31.0,0.0,2.0,,31.0,0.0004538749574492227,0.00022693747872461136,0.0,0.5,7.75,0.0,1.0,15.5,31.0,2.0,2.0
100,3153.0,8839.0,5.606723755153822,0.0017787829172442326,0.001824911168297683,0.9948789278773548,-0.16578205241577937,0.0,3.0,-0.16578205241577937,10.217598530490678,9.027012650110214,0.0008881034871415108,294.0,267.0,5.244897959183674,0.14232209737827714,0.3037542662116041,3497.0,8839.0,7.0,4.0,2.0,32.0,0.0,2.0,0.0,32.0,0.00045253988007693175,0.00022626994003846588,0.0,0.5,8.0,0.0,1.0,16.0,32.0,2.0,2.0
101,3153.0,8839.0,5.606723755153822,0.0017787829172442326,0.001824911168297683,0.9948789278773548,-0.16578205241577937,0.0,3.0,-0.16578205241577937,10.217598530490678,9.027012650110214,0.0008881034871415108,294.0,267.0,5.244897959183674,0.14232209737827714,0.3037542662116041,3497.0,8839.0,7.0,4.0,2.0,32.0,0.0,2.0,,32.0,0.00045253988007693175,0.00022626994003846588,0.0,0.5,8.0,0.0,1.0,16.0,32.0,2.0,2.0
102,3160.0,8865.0,5.610759493670886,0.0017761188647264596,0.0018309510591788469,1.0002780609290731,-0.16619620368284485,0.0,3.0,-0.16619620368284485,10.220380173454547,9.03782248092458,0.0008867769588207018,294.0,267.0,5.26530612244898,0.14232209737827714,0.3037542662116041,3518.0,8865.0,7.0,4.0,2.0,33.0,0.0,2.0,0.0,33.0,0.0004512126339537507,0.00022560631697687535,0.0,0.5,8.25,0.0,1.0,16.5,33.0,2.0,2.0
103,3160.0,8865.0,5.610759493670886,0.0017761188647264596,0.0018309510591788469,1.0002780609290731,-0.16619620368284485,0.0,3.0,-0.16619620368284485,10.220380173454547,9.03782248092458,0.0008867769588207018,294.0,267.0,5.26530612244898,0.14232209737827714,0.3037542662116041,3518.0,8865.0,7.0,4.0,2.0,33.0,0.0,2.0,,33.0,0.0004512126339537507,0.00022560631697687535,0.0,0.5,8.25,0.0,1.0,16.5,33.0,2.0,2.0
104,3167.0,8891.0,5.614777391853489,0.0017734609576290237,0.0018368719341094106,1.0056531270171403,-0.16657353028528182,0.0,3.0,-0.16657353028528182,10.22313302163128,9.048390896759065,0.000885453468129109,294.0,267.0,5.285714285714286,0.14232209737827714,0.3037542662116041,3539.0,8891.0,7.0,4.0,2.0,34.0,0.0,2.0,0.0,34.0,0.0004498931503767855,0.00022494657518839275,0.0,0.5,8.5,0.0,1.0,17.0,34.0,2.0,2.0
105,3167.0,8891.0,5.614777391853489,0.0017734609576290237,0.0018368719341094106,1.0056531270171403,-0.16657353028528182,0.0,3.0,-0.16657353028528182,10.22313302163128,9.048390896759065,0.000885453468129109,294.0,267.0,5.285714285714286,0.14232209737827714,0.3037542662116041,3539.0,8891.0,7.0,4.0,2.0,34.0,0.0,2.0,,34.0,0.0004498931503767855,0.00022494657518839275,0.0,0.5,8.5,0.0,1.0,17.0,34.0,2.0,2.0
106,3174.0,8917.0,5.618777567737871,0.0017708091924796311,0.0018431049009111162,1.0112496472916992,-0.1668805194889888,0.0,3.0,-0.1668805194889888,10.22582336770699,9.059067196824781,0.0008841330136279768,294.0,267.0,5.3061224489795915,0.14232209737827714,0.3037542662116041,3560.0,8917.0,7.0,4.0,2.0,35.0,0.0,2.0,0.0,35.0,0.000448581361444432,0.000224290680722216,0.0,0.5,8.75,0.0,1.0,17.5,35.0,2.0,2.0
107,3174.0,8917.0,5.618777567737871,0.0017708091924796311,0.0018431049009111162,1.0112496472916992,-0.1668805194889888,0.0,3.0,-0.1668805194889888,10.22582336770699,9.059067196824781,0.0008841330136279768,294.0,267.0,5.3061224489795915,0.14232209737827714,0.3037542662116041,3560.0,8917.0,7.0,4.0,2.0,35.0,0.0,2.0,,35.0,0.000448581361444432,0.000224290680722216,0.0,0.5,8.75,0.0,1.0,17.5,35.0,2.0,2.0
108,3181.0,8943.0,5.622760138321283,0.0017681635655098374,0.0018492177055816432,1.0168213668448152,-0.16716382632252053,0.0,3.0,-0.16716382632252053,10.228486764363975,9.069513469621432,0.0008828155937273348,294.0,267.0,5.326530612244898,0.14232209737827714,0.3037542662116041,3581.0,8943.0,7.0,4.0,2.0,36.0,0.0,2.0,0.0,36.0,0.00044727720004472774,0.00022363860002236387,0.0,0.5,9.0,0.0,1.0,18.0,36.0,2.0,2.0
109,3181.0,8943.0,5.622760138321283,0.0017681635655098374,0.0018492177055816432,1.0168213668448152,-0.16716382632252053,0.0,3.0,-0.16716382632252053,10.228486764363975,9.069513469621432,0.0008828155937273348,294.0,267.0,5.326530612244898,0.14232209737827714,0.3037542662116041,3581.0,8943.0,7.0,4.0,2.0,36.0,0.0,2.0,,36.0,0.00044727720004472774,0.00022363860002236387,0.0,0.5,9.0,0.0,1.0,18.0,36.0,2.0,2.0
110,3188.0,8969.0,5.6267252195734,0.0017655240726618768,0.0018556377709396154,1.022613625924071,-0.16738901757583122,0.0,3.0,-0.16738901757583122,10.231091366744497,9.080059677332464,0.0008815012066894518,294.0,267.0,5.346938775510204,0.14232209737827714,0.3037542662116041,3602.0,8969.0,7.0,4.0,2.0,37.0,0.0,2.0,0.0,37.0,0.0004459805998439068,0.0002229902999219534,0.0,0.5,9.25,0.0,1.0,18.5,37.0,2.0,2.0
111,3188.0,8969.0,5.6267252195734,0.0017655240726618768,0.0018556377709396154,1.022613625924071,-0.16738901757583122,0.0,3.0,-0.16738901757583122,10.231091366744497,9.080059677332464,0.0008815012066894518,294.0,267.0,5.346938775510204,0.14232209737827714,0.3037542662116041,3602.0,8969.0,7.0,4.0,2.0,37.0,0.0,2.0,,37.0,0.0004459805998439068,0.0002229902999219534,0.0,0.5,9.25,0.0,1.0,18.5,37.0,2.0,2.0
112,3195.0,8995.0,5.630672926447574,0.0017628907095953582,0.0018619366042904682,1.0283803588051472,-0.16760138975416658,0.0,3.0,-0.16760138975416658,10.2336706976414,9.090386482123737,0.0008801898506322232,294.0,267.0,5.36734693877551,0.14232209737827714,0.3037542662116041,3623.0,8995.0,7.0,4.0,2.0,38.0,0.0,2.0,0.0,38.0,0.00044469149527515285,0.00022234574763757643,0.0,0.5,9.5,0.0,1.0,19.0,38.0,2.0,2.0
113,3195.0,8995.0,5.630672926447574,0.0017628907095953582,0.0018619366042904682,1.0283803588051472,-0.16760138975416658,0.0,3.0,-0.16760138975416658,10.2336706976414,9.090386482123737,0.0008801898506322232,294.0,267.0,5.36734693877551,0.14232209737827714,0.3037542662116041,3623.0,8995.0,7.0,4.0,2.0,38.0,0.0,2.0,,38.0,0.00044469149527515285,0.00022234574763757643,0.0,0.5,9.5,0.0,1.0,19.0,38.0,2.0,2.0
114,3202.0,9021.0,5.6346033728919425,0.0017602634716938279,0.0018685379768039894,1.034366574003741,-0.16776640678346458,0.0,3.0,-0.16776640678346458,10.236194595439393,9.100805630335316,0.0008788815235324893,294.0,267.0,5.387755102040816,0.14232209737827714,0.3037542662116041,3644.0,9021.0,7.0,4.0,2.0,39.0,0.0,2.0,0.0,39.0,0.00044340982152754686,0.00022170491076377343,0.0,0.5,9.75,0.0,1.0,19.5,39.0,2.0,2.0
115,3202.0,9021.0,5.6346033728919425,0.0017602634716938279,0.0018685379768039894,1.034366574003741,-0.16776640678346458,0.0,3.0,-0.16776640678346458,10.236194595439393,9.100805630335316,0.0008788815235324893,294.0,267.0,5.387755102040816,0.14232209737827714,0.3037542662116041,3644.0,9021.0,7.0,4.0,2.0,39.0,0.0,2.0,,39.0,0.00044340982152754686,0.00022170491076377343,0.0,0.5,9.75,0.0,1.0,19.5,39.0,2.0,2.0
116,3209.0,9047.0,5.638516671860392,0.0017576423540711947,0.0018750171179636817,1.0403265474725574,-0.1679272942626807,0.0,3.0,-0.1679272942626807,10.238694753697358,9.111015320348871,0.0008775762232292883,294.0,267.0,5.408163265306122,0.14232209737827714,0.3037542662116041,3665.0,9047.0,7.0,4.0,2.0,40.0,0.0,2.0,0.0,40.0,0.00044213551453520505,0.00022106775726760252,0.0,0.5,10.0,0.0,1.0,20.0,40.0,2.0,2.0
117,3209.0,9047.0,5.638516671860392,0.0017576423540711947,0.0018750171179636817,1.0403265474725574,-0.1679272942626807,0.0,3.0,-0.1679272942626807,10.238694753697358,9.111015320348871,0.0008775762232292883,294.0,267.0,5.408163265306122,0.14232209737827714,0.3037542662116041,3665.0,9047.0,7.0,4.0,2.0,40.0,0.0,2.0,,40.0,0.00044213551453520505,0.00022106775726760252,0.0,0.5,10.0,0.0,1.0,20.0,40.0,2.0,2.0
118,3216.0,9073.0,5.642412935323383,0.001755027351578035,0.0018817941831974826,1.0465048383583502,-0.16805004415804453,0.0,3.0,-0.16805004415804453,10.241142539305702,9.12131012897691,0.0008762739474270438,294.0,267.0,5.428571428571429,0.14232209737827714,0.3037542662116041,3686.0,9073.0,7.0,4.0,2.0,41.0,0.0,2.0,0.0,41.0,0.00044086851096660423,0.00022043425548330211,0.0,0.5,10.25,0.0,1.0,20.5,41.0,2.0,2.0
119,3216.0,9073.0,5.642412935323383,0.001755027351578035,0.0018817941831974826,1.0465048383583502,-0.16805004415804453,0.0,3.0,-0.16805004415804453,10.241142539305702,9.12131012897691,0.0008762739474270438,294.0,267.0,5.428571428571429,0.14232209737827714,0.3037542662116041,3686.0,9073.0,7.0,4.0,2.0,41.0,0.0,2.0,,41.0,0.00044086851096660423,0.00022043425548330211,0.0,0.5,10.25,0.0,1.0,20.5,41.0,2.0,2.0
120,3223.0,9099.0,5.646292274278623,0.0017524184588077656,0.0018884480833640939,1.0526561831033165,-0.16817540861176494,0.0,3.0,-0.16817540861176494,10.243567989167826,9.131404814897033,0.0008749746936986901,294.0,267.0,5.448979591836735,0.14232209737827714,0.3037542662116041,3707.0,9099.0,7.0,4.0,2.0,42.0,0.0,2.0,0.0,42.0,0.00043960874821408945,0.00021980437410704473,0.0,0.5,10.5,0.0,1.0,21.0,42.0,2.0,2.0
121,3223.0,9099.0,5.646292274278623,0.0017524184588077656,0.0018884480833640939,1.0526561831033165,-0.16817540861176494,0.0,3.0,-0.16817540861176494,10.243567989167826,9.131404814897033,0.0008749746936986901,294.0,267.0,5.448979591836735,0.14232209737827714,0.3037542662116041,3707.0,9099.0,7.0,4.0,2.0,42.0,0.0,2.0,,42.0,0.00043960874821408945,0.00021980437410704473,0.0,0.5,10.5,0.0,1.0,21.0,42.0,2.0,2.0
122,3230.0,9125.0,5.65015479876161,0.0017498156701026971,0.0018953953957800403,1.0590245990763731,-0.16827037280110035,0.0,3.0,-0.16827037280110035,10.245943864159834,9.141577762896112,0.0008736784594887328,294.0,267.0,5.469387755102041,0.14232209737827714,0.3037542662116041,3728.0,9125.0,7.0,4.0,2.0,43.0,0.0,2.0,0.0,43.0,0.00043835616438356166,0.00021917808219178083,0.0,0.5,10.75,0.0,1.0,21.5,43.0,2.0,2.0
123,3230.0,9125.0,5.65015479876161,0.0017498156701026971,0.0018953953957800403,1.0590245990763731,-0.16827037280110035,0.0,3.0,-0.16827037280110035,10.245943864159834,9.141577762896112,0.0008736784594887328,294.0,267.0,5.469387755102041,0.14232209737827714,0.3037542662116041,3728.0,9125.0,7.0,4.0,2.0,43.0,0.0,2.0,,43.0,0.00043835616438356166,0.00021917808219178083,0.0,0.5,10.75,0.0,1.0,21.5,43.0,2.0,2.0
124,3237.0,9151.0,5.654000617856039,0.001747218979559963,0.0019022186708334303,1.0653653764395805,-0.16837303067315562,0.0,3.0,-0.16837303067315562,10.248298694031345,9.1515593740753,0.0008723852421162515,294.0,267.0,5.489795918367347,0.14232209737827714,0.3037542662116041,3749.0,9151.0,7.0,4.0,2.0,44.0,0.0,2.0,0.0,44.0,0.0004371106982843405,0.00021855534914217025,0.0,0.5,11.0,0.0,1.0,22.0,44.0,2.0,2.0
125,3237.0,9151.0,5.654000617856039,0.001747218979559963,0.0019022186708334303,1.0653653764395805,-0.16837303067315562,0.0,3.0,-0.16837303067315562,10.248298694031345,9.1515593740753,0.0008723852421162515,294.0,267.0,5.489795918367347,0.14232209737827714,0.3037542662116041,3749.0,9151.0,7.0,4.0,2.0,44.0,0.0,2.0,,44.0,0.0004371106982843405,0.00021855534914217025,0.0,0.5,11.0,0.0,1.0,22.0,44.0,2.0,2.0
126,3244.0,9177.0,5.657829839704069,0.0017446283810373323,0.001909330946489715,1.0719219177762593,-0.16845168513019124,0.0,3.0,-0.16845168513019124,10.250606515969002,9.161612755390214,0.0008710950387778404,294.0,267.0,5.510204081632653,0.14232209737827714,0.3037542662116041,3770.0,9177.0,7.0,4.0,2.0,45.0,0.0,2.0,0.0,45.0,0.00043587228941920016,0.00021793614470960008,0.0,0.5,11.25,0.0,1.0,22.5,45.0,2.0,2.0
127,3244.0,9177.0,5.657829839704069,0.0017446283810373323,0.001909330946489715,1.0719219177762593,-0.16845168513019124,0.0,3.0,-0.16845168513019124,10.250606515969002,9.161612755390214,0.0008710950387778404,294.0,267.0,5.510204081632653,0.14232209737827714,0.3037542662116041,3770.0,9177.0,7.0,4.0,2.0,45.0,0.0,2.0,,45.0,0.00043587228941920016,0.00021793614470960008,0.0,0.5,11.25,0.0,1.0,22.5,45.0,2.0,2.0
128,3251.0,9203.0,5.661642571516457,0.0017420438681589095,0.0019163183702254063,1.0784501405378668,-0.16854173409290074,0.0,3.0,-0.16854173409290074,10.252894482927955,9.17148308704636,0.0008698078465504924,294.0,267.0,5.530612244897959,0.14232209737827714,0.3037542662116041,3791.0,9203.0,7.0,4.0,2.0,46.0,0.0,2.0,0.0,46.0,0.0004346408779745735,0.00021732043898728675,0.0,0.5,11.5,0.0,1.0,23.0,46.0,2.0,2.0
129,3251.0,9203.0,5.661642571516457,0.0017420438681589095,0.0019163183702254063,1.0784501405378668,-0.16854173409290074,0.0,3.0,-0.16854173409290074,10.252894482927955,9.17148308704636,0.0008698078465504924,294.0,267.0,5.530612244897959,0.14232209737827714,0.3037542662116041,3791.0,9203.0,7.0,4.0,2.0,46.0,0.0,2.0,,46.0,0.0004346408779745735,0.00021732043898728675,0.0,0.5,11.5,0.0,1.0,23.0,46.0,2.0,2.0
130,3258.0,9229.0,5.665438919582566,0.001739465434320714,0.0019235904801151791,1.0851927745942596,-0.16861300799468862,0.0,3.0,-0.16861300799468862,10.255137804877918,9.181419054040482,0.0008685236623944233,294.0,267.0,5.551020408163265,0.14232209737827714,0.3037542662116041,3812.0,9229.0,7.0,4.0,2.0,47.0,0.0,2.0,0.0,47.0,0.0004334164048109221,0.00021670820240546104,0.0,0.5,11.75,0.0,1.0,23.5,47.0,2.0,2.0
131,3258.0,9229.0,5.665438919582566,0.001739465434320714,0.0019235904801151791,1.0851927745942596,-0.16861300799468862,0.0,3.0,-0.16861300799468862,10.255137804877918,9.181419054040482,0.0008685236623944233,294.0,267.0,5.551020408163265,0.14232209737827714,0.3037542662116041,3812.0,9229.0,7.0,4.0,2.0,47.0,0.0,2.0,,47.0,0.0004334164048109221,0.00021670820240546104,0.0,0.5,11.75,0.0,1.0,23.5,47.0,2.0,2.0
132,3265.0,9255.0,5.669218989280245,0.0017368930726961531,0.0019307369780093254,1.0919064229832434,-0.1686982656579147,0.0,3.0,-0.1686982656579147,10.257362372326636,9.191179803518734,0.0008672424831558433,294.0,267.0,5.571428571428571,0.14232209737827714,0.3037542662116041,3833.0,9255.0,7.0,4.0,2.0,48.0,0.0,2.0,0.0,48.0,0.0004321988114532685,0.00021609940572663426,0.0,0.5,12.0,0.0,1.0,24.0,48.0,2.0,2.0
133,3265.0,9255.0,5.669218989280245,0.0017368930726961531,0.0019307369780093254,1.0919064229832434,-0.1686982656579147,0.0,3.0,-0.1686982656579147,10.257362372326636,9.191179803518734,0.0008672424831558433,294.0,267.0,5.571428571428571,0.14232209737827714,0.3037542662116041,3833.0,9255.0,7.0,4.0,2.0,48.0,0.0,2.0,,48.0,0.0004321988114532685,0.00021609940572663426,0.0,0.5,12.0,0.0,1.0,24.0,48.0,2.0,2.0
134,3272.0,9281.0,5.672982885085575,0.0017343267762413865,0.0019381639419373301,1.0988330967688982,-0.16876898459952244,0.0,3.0,-0.16876898459952244,10.259544476469088,9.20100040057573,0.0008659643055696701,294.0,267.0,5.591836734693878,0.14232209737827714,0.3037542662116041,3854.0,9281.0,7.0,4.0,2.0,49.0,0.0,2.0,0.0,49.0,0.0004309880400818877,0.00021549402004094386,0.0,0.5,12.25,0.0,1.0,24.5,49.0,2.0,2.0
135,3272.0,9281.0,5.672982885085575,0.0017343267762413865,0.0019381639419373301,1.0988330967688982,-0.16876898459952244,0.0,3.0,-0.16876898459952244,10.259544476469088,9.20100040057573,0.0008659643055696701,294.0,267.0,5.591836734693878,0.14232209737827714,0.3037542662116041,3854.0,9281.0,7.0,4.0,2.0,49.0,0.0,2.0,,49.0,0.0004309880400818877,0.00021549402004094386,0.0,0.5,12.25,0.0,1.0,24.5,49.0,2.0,2.0
136,3279.0,9307.0,5.676730710582494,0.001731766537700578,0.0019454645853681338,1.1057301308924359,-0.16885539922426318,0.0,3.0,-0.16885539922426318,10.261708846215814,9.210653195046797,0.0008646891262621908,294.0,267.0,5.612244897959184,0.14232209737827714,0.3037542662116041,3875.0,9307.0,7.0,4.0,2.0,50.0,0.0,2.0,0.0,50.0,0.00042978403352315463,0.00021489201676157732,0.0,0.5,12.5,0.0,1.0,25.0,50.0,2.0,2.0
137,3279.0,9307.0,5.676730710582494,0.001731766537700578,0.0019454645853681338,1.1057301308924359,-0.16885539922426318,0.0,3.0,-0.16885539922426318,10.261708846215814,9.210653195046797,0.0008646891262621908,294.0,267.0,5.612244897959184,0.14232209737827714,0.3037542662116041,3875.0,9307.0,7.0,4.0,2.0,50.0,0.0,2.0,,50.0,0.00042978403352315463,0.00021489201676157732,0.0,0.5,12.5,0.0,1.0,25.0,50.0,2.0,2.0
138,3286.0,9333.0,5.680462568472307,0.0017292123496110525,0.0019530415662846212,1.112838780891883,-0.16893068500968444,0.0,3.0,-0.16893068500968444,10.26383277262445,9.220360384438653,0.000863416941753669,294.0,267.0,5.63265306122449,0.14232209737827714,0.3037542662116041,3896.0,9333.0,7.0,4.0,2.0,51.0,0.0,2.0,0.0,51.0,0.0004285867352405443,0.00021429336762027214,0.0,0.5,12.75,0.0,1.0,25.5,51.0,2.0,2.0
139,3286.0,9333.0,5.680462568472307,0.0017292123496110525,0.0019530415662846212,1.112838780891883,-0.16893068500968444,0.0,3.0,-0.16893068500968444,10.26383277262445,9.220360384438653,0.000863416941753669,294.0,267.0,5.63265306122449,0.14232209737827714,0.3037542662116041,3896.0,9333.0,7.0,4.0,2.0,51.0,0.0,2.0,,51.0,0.0004285867352405443,0.00021429336762027214,0.0,0.5,12.75,0.0,1.0,25.5,51.0,2.0,2.0
140,3293.0,9359.0,5.684178560583055,0.0017266642043083401,0.0019604915671488803,1.119917150447909,-0.1690226988819846,0.0,3.0,-0.1690226988819846,10.265939912401848,9.229906801875192,0.0008621477484609016,294.0,267.0,5.653061224489796,0.14232209737827714,0.3037542662116041,3917.0,9359.0,7.0,4.0,2.0,52.0,0.0,2.0,0.0,52.0,0.0004273960893257827,0.00021369804466289135,0.0,0.5,13.0,0.0,1.0,26.0,52.0,2.0,2.0
141,3293.0,9359.0,5.684178560583055,0.0017266642043083401,0.0019604915671488803,1.119917150447909,-0.1690226988819846,0.0,3.0,-0.1690226988819846,10.265939912401848,9.229906801875192,0.0008621477484609016,294.0,267.0,5.653061224489796,0.14232209737827714,0.3037542662116041,3917.0,9359.0,7.0,4.0,2.0,52.0,0.0,2.0,,52.0,0.0004273960893257827,0.00021369804466289135,0.0,0.5,13.0,0.0,1.0,26.0,52.0,2.0,2.0
142,3293.0,9359.0,5.684178560583055,0.0017266642043083401,0.0019604915671488803,1.119917150447909,-0.1690226988819846,0.0,3.0,-0.1690226988819846,10.265939912401848,9.229906801875192,0.0008621477484609016,294.0,267.0,5.653061224489796,0.14232209737827714,0.3037542662116041,3917.0,9359.0,7.0,4.0,2.0,52.0,0.0,2.0,,52.0,0.0004273960893257827,0.00021369804466289135,0.0,0.5,13.0,0.0,1.0,26.0,52.0,2.0,2.0
143,3293.0,9359.0,5.684178560583055,0.0017266642043083401,0.0019604915671488803,1.119917150447909,-0.1690226988819846,0.0,3.0,-0.1690226988819846,10.265939912401848,9.229906801875192,0.0008621477484609016,294.0,267.0,5.653061224489796,0.14232209737827714,0.3037542662116041,3917.0,9359.0,7.0,4.0,2.0,52.0,0.0,2.0,,52.0,0.0004273960893257827,0.00021369804466289135,0.0,0.5,13.0,0.0,1.0,26.0,52.0,2.0,2.0
144,3293.0,9359.0,5.684178560583055,0.0017266642043083401,0.0019604915671488803,1.119917150447909,-0.1690226988819846,0.0,3.0,-0.1690226988819846,10.265939912401848,9.229906801875192,0.0008621477484609016,294.0,267.0,5.653061224489796,0.14232209737827714,0.3037542662116041,3917.0,9359.0,7.0,4.0,2.0,52.0,0.0,2.0,,52.0,0.0004273960893257827,0.00021369804466289135,0.0,0.5,13.0,0.0,1.0,26.0,52.0,2.0,2.0
145,3293.0,9359.0,5.684178560583055,0.0017266642043083401,0.0019604915671488803,1.119917150447909,-0.1690226988819846,0.0,3.0,-0.1690226988819846,10.265939912401848,9.229906801875192,0.0008621477484609016,294.0,267.0,5.653061224489796,0.14232209737827714,0.3037542662116041,3917.0,9359.0,7.0,4.0,2.0,52.0,0.0,2.0,,52.0,0.0004273960893257827,0.00021369804466289135,0.0,0.5,13.0,0.0,1.0,26.0,52.0,2.0,2.0
146,3293.0,9359.0,5.684178560583055,0.0017266642043083401,0.0019604915671488803,1.119917150447909,-0.1690226988819846,0.0,3.0,-0.1690226988819846,10.265939912401848,9.229906801875192,0.0008621477484609016,294.0,267.0,5.653061224489796,0.14232209737827714,0.3037542662116041,3917.0,9359.0,7.0,4.0,2.0,52.0,0.0,2.0,,52.0,0.0004273960893257827,0.00021369804466289135,0.0,0.5,13.0,0.0,1.0,26.0,52.0,2.0,2.0
147,3293.0,9359.0,5.684178560583055,0.0017266642043083401,0.0019604915671488803,1.119917150447909,-0.1690226988819846,0.0,3.0,-0.1690226988819846,10.265939912401848,9.229906801875192,0.0008621477484609016,294.0,267.0,5.653061224489796,0.14232209737827714,0.3037542662116041,3917.0,9359.0,7.0,4.0,2.0,52.0,0.0,2.0,,52.0,0.0004273960893257827,0.00021369804466289135,0.0,0.5,13.0,0.0,1.0,26.0,52.0,2.0,2.0
148,3293.0,9359.0,5.684178560583055,0.0017266642043083401,0.0019604915671488803,1.119917150447909,-0.1690226988819846,0.0,3.0,-0.1690226988819846,10.265939912401848,9.229906801875192,0.0008621477484609016,294.0,267.0,5.653061224489796,0.14232209737827714,0.3037542662116041,3917.0,9359.0,7.0,4.0,2.0,52.0,0.0,2.0,,52.0,0.0004273960893257827,0.00021369804466289135,0.0,0.5,13.0,0.0,1.0,26.0,52.0,2.0,2.0
149,3300.0,9385.0,5.6878787878787875,0.001724122093931127,0.0019682138658761172,1.1272057103340065,-0.16910631461452472,0.0,3.0,-0.16910631461452472,10.268008483843431,9.239502483532618,0.0008608815426997245,294.0,267.0,5.673469387755102,0.14232209737827714,0.3037542662116041,3938.0,9385.0,7.0,4.0,2.0,53.0,0.0,2.0,0.0,53.0,0.0004262120404901438,0.0002131060202450719,0.0,0.5,13.25,0.0,1.0,26.5,53.0,2.0,2.0
150,3300.0,9385.0,5.6878787878787875,0.001724122093931127,0.0019682138658761172,1.1272057103340065,-0.16910631461452472,0.0,3.0,-0.16910631461452472,10.268008483843431,9.239502483532618,0.0008608815426997245,294.0,267.0,5.673469387755102,0.14232209737827714,0.3037542662116041,3938.0,9385.0,7.0,4.0,2.0,53.0,0.0,2.0,,53.0,0.0004262120404901438,0.0002131060202450719,0.0,0.5,13.25,0.0,1.0,26.5,53.0,2.0,2.0
151,3307.0,9411.0,5.691563350468702,0.0017215860104261053,0.0019758085715504484,1.1344633622417815,-0.16920717376305036,0.0,3.0,-0.16920717376305036,10.270061151057956,9.248944068403818,0.0008596183206874679,294.0,267.0,5.6938775510204085,0.14232209737827714,0.3037542662116041,3959.0,9411.0,7.0,4.0,2.0,54.0,0.0,2.0,0.0,54.0,0.00042503453405589204,0.00021251726702794602,0.0,0.5,13.5,0.0,1.0,27.0,54.0,2.0,2.0
152,3307.0,9411.0,5.691563350468702,0.0017215860104261053,0.0019758085715504484,1.1344633622417815,-0.16920717376305036,0.0,3.0,-0.16920717376305036,10.270061151057956,9.248944068403818,0.0008596183206874679,294.0,267.0,5.6938775510204085,0.14232209737827714,0.3037542662116041,3959.0,9411.0,7.0,4.0,2.0,54.0,0.0,2.0,,54.0,0.00042503453405589204,0.00021251726702794602,0.0,0.5,13.5,0.0,1.0,27.0,54.0,2.0,2.0
153,3314.0,9437.0,5.695232347616174,0.0017190559455527233,0.0019836716218496484,1.1419297689590926,-0.16930181286200321,0.0,3.0,-0.16930181286200321,10.272076994485536,9.258430094875738,0.0008583580785453639,294.0,267.0,5.714285714285714,0.14232209737827714,0.3037542662116041,3980.0,9437.0,7.0,4.0,2.0,55.0,0.0,2.0,0.0,55.0,0.0004238635159478648,0.0002119317579739324,0.0,0.5,13.75,0.0,1.0,27.5,55.0,2.0,2.0
154,3314.0,9437.0,5.695232347616174,0.0017190559455527233,0.0019836716218496484,1.1419297689590926,-0.16930181286200321,0.0,3.0,-0.16930181286200321,10.272076994485536,9.258430094875738,0.0008583580785453639,294.0,267.0,5.714285714285714,0.14232209737827714,0.3037542662116041,3980.0,9437.0,7.0,4.0,2.0,55.0,0.0,2.0,,55.0,0.0004238635159478648,0.0002119317579739324,0.0,0.5,13.75,0.0,1.0,27.5,55.0,2.0,2.0
155,3321.0,9463.0,5.698885877747666,0.0017165318908878512,0.0019914065104547703,1.1493646533794093,-0.16941382424350768,0.0,3.0,-0.16941382424350768,10.274077756830094,9.26776836969264,0.0008571008123009063,294.0,267.0,5.73469387755102,0.14232209737827714,0.3037542662116041,4001.0,9463.0,7.0,4.0,2.0,56.0,0.0,2.0,0.0,56.0,0.00042269893268519497,0.00021134946634259749,0.0,0.5,14.0,0.0,1.0,28.0,56.0,2.0,2.0
156,3321.0,9463.0,5.698885877747666,0.0017165318908878512,0.0019914065104547703,1.1493646533794093,-0.16941382424350768,0.0,3.0,-0.16941382424350768,10.274077756830094,9.26776836969264,0.0008571008123009063,294.0,267.0,5.73469387755102,0.14232209737827714,0.3037542662116041,4001.0,9463.0,7.0,4.0,2.0,56.0,0.0,2.0,,56.0,0.00042269893268519497,0.00021134946634259749,0.0,0.5,14.0,0.0,1.0,28.0,56.0,2.0,2.0
157,3328.0,9489.0,5.702524038461538,0.001714013837830339,0.0019994058743910206,1.1570068519565415,-0.16952134731040372,0.0,3.0,-0.16952134731040372,10.27604332211021,9.27714655731199,0.0008558465178901627,294.0,267.0,5.755102040816326,0.14232209737827714,0.3037542662116041,4022.0,9489.0,7.0,4.0,2.0,57.0,0.0,2.0,0.0,57.0,0.00042154073137316893,0.00021077036568658446,0.0,0.5,14.25,0.0,1.0,28.5,57.0,2.0,2.0
158,3328.0,9489.0,5.702524038461538,0.001714013837830339,0.0019994058743910206,1.1570068519565415,-0.16952134731040372,0.0,3.0,-0.16952134731040372,10.27604332211021,9.27714655731199,0.0008558465178901627,294.0,267.0,5.755102040816326,0.14232209737827714,0.3037542662116041,4022.0,9489.0,7.0,4.0,2.0,57.0,0.0,2.0,,57.0,0.00042154073137316893,0.00021077036568658446,0.0,0.5,14.25,0.0,1.0,28.5,57.0,2.0,2.0
159,3335.0,9515.0,5.706146926536731,0.0017115017776054983,0.0020072765503245786,1.1646169270557303,-0.1696460883566971,0.0,3.0,-0.1696460883566971,10.277994575548139,9.286383030918628,0.0008545951911600422,294.0,267.0,5.775510204081633,0.14232209737827714,0.3037542662116041,4043.0,9515.0,7.0,4.0,2.0,58.0,0.0,2.0,0.0,58.0,0.00042038885969521806,0.00021019442984760903,0.0,0.5,14.5,0.0,1.0,29.0,58.0,2.0,2.0
160,3335.0,9515.0,5.706146926536731,0.0017115017776054983,0.0020072765503245786,1.1646169270557303,-0.1696460883566971,0.0,3.0,-0.1696460883566971,10.277994575548139,9.286383030918628,0.0008545951911600422,294.0,267.0,5.775510204081633,0.14232209737827714,0.3037542662116041,4043.0,9515.0,7.0,4.0,2.0,58.0,0.0,2.0,,58.0,0.00042038885969521806,0.00021019442984760903,0.0,0.5,14.5,0.0,1.0,29.0,58.0,2.0,2.0
161,3335.0,9515.0,5.706146926536731,0.0017115017776054983,0.0020072765503245786,1.1646169270557303,-0.1696460883566971,0.0,3.0,-0.1696460883566971,10.277994575548139,9.286383030918628,0.0008545951911600422,294.0,267.0,5.775510204081633,0.14232209737827714,0.3037542662116041,4043.0,9515.0,7.0,4.0,2.0,58.0,0.0,2.0,,58.0,0.00042038885969521806,0.00021019442984760903,0.0,0.5,14.5,0.0,1.0,29.0,58.0,2.0,2.0
162,3335.0,9515.0,5.706146926536731,0.0017115017776054983,0.0020072765503245786,1.1646169270557303,-0.1696460883566971,0.0,3.0,-0.1696460883566971,10.277994575548139,9.286383030918628,0.0008545951911600422,294.0,267.0,5.775510204081633,0.14232209737827714,0.3037542662116041,4043.0,9515.0,7.0,4.0,2.0,58.0,0.0,2.0,,58.0,0.00042038885969521806,0.00021019442984760903,0.0,0.5,14.5,0.0,1.0,29.0,58.0,2.0,2.0
163,3335.0,9515.0,5.706146926536731,0.0017115017776054983,0.0020072765503245786,1.1646169270557303,-0.1696460883566971,0.0,3.0,-0.1696460883566971,10.277994575548139,9.286383030918628,0.0008545951911600422,294.0,267.0,5.775510204081633,0.14232209737827714,0.3037542662116041,4043.0,9515.0,7.0,4.0,2.0,58.0,0.0,2.0,,58.0,0.00042038885969521806,0.00021019442984760903,0.0,0.5,14.5,0.0,1.0,29.0,58.0,2.0,2.0
164,3348.0,9552.0,5.706093189964157,0.0017048381206944002,0.002026839187032697,1.170470483555974,-0.16906142204986357,0.0,3.0,-0.16906142204986357,10.283946666504734,9.308846772403438,0.0008512723229260787,294.0,267.0,5.809523809523809,0.14232209737827714,0.3037542662116041,4071.0,9552.0,8.0,5.0,3.0,59.0,0.0,2.0,0.0,59.0,0.0005234505862646566,0.000314070351758794,0.0,0.6,11.8,0.0,1.0,19.666666666666668,59.0,3.0,3.0
165,3348.0,9552.0,5.706093189964157,0.0017048381206944002,0.002026839187032697,1.170470483555974,-0.16906142204986357,0.0,3.0,-0.16906142204986357,10.283946666504734,9.308846772403438,0.0008512723229260787,294.0,267.0,5.809523809523809,0.14232209737827714,0.3037542662116041,4071.0,9552.0,8.0,5.0,3.0,59.0,0.0,2.0,,59.0,0.0005234505862646566,0.000314070351758794,0.0,0.6,11.8,0.0,1.0,19.666666666666668,59.0,3.0,3.0
166,3355.0,9578.0,5.709687034277199,0.0017023515307922476,0.002035267236198821,1.1741668027987617,-0.16867967532708242,0.0,3.0,-0.16867967532708242,10.286852400681147,9.318157117385145,0.0008500336486459474,294.0,267.0,5.829931972789115,0.14232209737827714,0.3037542662116041,4092.0,9578.0,8.0,5.0,3.0,60.0,0.0,2.0,0.0,60.0,0.0005220296512841929,0.00031321779077051577,0.0,0.6,12.0,0.0,1.0,20.0,60.0,3.0,3.0
167,3355.0,9578.0,5.709687034277199,0.0017023515307922476,0.002035267236198821,1.1741668027987617,-0.16867967532708242,0.0,3.0,-0.16867967532708242,10.286852400681147,9.318157117385145,0.0008500336486459474,294.0,267.0,5.829931972789115,0.14232209737827714,0.3037542662116041,4092.0,9578.0,8.0,5.0,3.0,60.0,0.0,2.0,,60.0,0.0005220296512841929,0.00031321779077051577,0.0,0.6,12.0,0.0,1.0,20.0,60.0,3.0,3.0
168,3362.0,9604.0,5.7132659131469365,0.0016998708459229205,0.0020431353047463915,1.1819162962100456,-0.1688267772180504,0.0,3.0,-0.1688267772180504,10.288730748231618,9.327078536154916,0.0008487978990438327,294.0,267.0,5.850340136054422,0.14232209737827714,0.3037542662116041,4113.0,9604.0,8.0,5.0,3.0,61.0,0.0,2.0,0.0,61.0,0.0005206164098292378,0.0003123698458975427,0.0,0.6,12.2,0.0,1.0,20.333333333333332,61.0,3.0,3.0
169,3362.0,9604.0,5.7132659131469365,0.0016998708459229205,0.0020431353047463915,1.1819162962100456,-0.1688267772180504,0.0,3.0,-0.1688267772180504,10.288730748231618,9.327078536154916,0.0008487978990438327,294.0,267.0,5.850340136054422,0.14232209737827714,0.3037542662116041,4113.0,9604.0,8.0,5.0,3.0,61.0,0.0,2.0,,61.0,0.0005206164098292378,0.0003123698458975427,0.0,0.6,12.2,0.0,1.0,20.333333333333332,61.0,3.0,3.0
170,3369.0,9630.0,5.716829919857524,0.0016973960569648234,0.002051900975073897,1.1897829461742189,-0.1689752473673972,0.0,3.0,-0.1689752473673972,10.290584539462989,9.33630214709988,0.0008475650697818295,294.0,267.0,5.870748299319728,0.14232209737827714,0.3037542662116041,4134.0,9630.0,8.0,5.0,3.0,62.0,0.0,2.0,0.0,62.0,0.0005192107995846313,0.00031152647975077883,0.0,0.6,12.4,0.0,1.0,20.666666666666668,62.0,3.0,3.0
171,3369.0,9630.0,5.716829919857524,0.0016973960569648234,0.002051900975073897,1.1897829461742189,-0.1689752473673972,0.0,3.0,-0.1689752473673972,10.290584539462989,9.33630214709988,0.0008475650697818295,294.0,267.0,5.870748299319728,0.14232209737827714,0.3037542662116041,4134.0,9630.0,8.0,5.0,3.0,62.0,0.0,2.0,,62.0,0.0005192107995846313,0.00031152647975077883,0.0,0.6,12.4,0.0,1.0,20.666666666666668,62.0,3.0,3.0
172,3376.0,9656.0,5.720379146919432,0.0016949271546427944,0.00205989421543938,1.1977033899118341,-0.1691368257459992,0.0,3.0,-0.1691368257459992,10.292418487715821,9.345131314576985,0.0008463351564430269,294.0,267.0,5.891156462585034,0.14232209737827714,0.3037542662116041,4155.0,9656.0,8.0,5.0,3.0,63.0,0.0,2.0,0.0,63.0,0.0005178127589063795,0.0003106876553438277,0.0,0.6,12.6,0.0,1.0,21.0,63.0,3.0,3.0
173,3376.0,9656.0,5.720379146919432,0.0016949271546427944,0.00205989421543938,1.1977033899118341,-0.1691368257459992,0.0,3.0,-0.1691368257459992,10.292418487715821,9.345131314576985,0.0008463351564430269,294.0,267.0,5.891156462585034,0.14232209737827714,0.3037542662116041,4155.0,9656.0,8.0,5.0,3.0,63.0,0.0,2.0,,63.0,0.0005178127589063795,0.0003106876553438277,0.0,0.6,12.6,0.0,1.0,21.0,63.0,3.0,3.0
174,3383.0,9682.0,5.723913686077446,0.0016924641295320657,0.002068777033440254,1.2057397814039565,-0.16930032125138778,0.0,3.0,-0.16930032125138778,10.294228925686891,9.35424370039019,0.0008451081545335133,294.0,267.0,5.91156462585034,0.14232209737827714,0.3037542662116041,4176.0,9682.0,8.0,5.0,3.0,64.0,0.0,2.0,0.0,64.0,0.000516422226812642,0.0003098533360875852,0.0,0.6,12.8,0.0,1.0,21.333333333333332,64.0,3.0,3.0
175,3383.0,9682.0,5.723913686077446,0.0016924641295320657,0.002068777033440254,1.2057397814039565,-0.16930032125138778,0.0,3.0,-0.16930032125138778,10.294228925686891,9.35424370039019,0.0008451081545335133,294.0,267.0,5.91156462585034,0.14232209737827714,0.3037542662116041,4176.0,9682.0,8.0,5.0,3.0,64.0,0.0,2.0,,64.0,0.000516422226812642,0.0003098533360875852,0.0,0.6,12.8,0.0,1.0,21.333333333333332,64.0,3.0,3.0
176,3390.0,9708.0,5.727433628318584,0.0016900069720621376,0.0020768914814340215,1.2138291865878,-0.169476533848472,0.0,3.0,-0.169476533848472,10.296020400447398,9.362981882168018,0.0008438840594843414,294.0,267.0,5.931972789115647,0.14232209737827714,0.3037542662116041,4197.0,9708.0,8.0,5.0,3.0,65.0,0.0,2.0,0.0,65.0,0.0005150391429748661,0.00030902348578491963,0.0,0.6,13.0,0.0,1.0,21.666666666666668,65.0,3.0,3.0
177,3390.0,9708.0,5.727433628318584,0.0016900069720621376,0.0020768914814340215,1.2138291865878,-0.169476533848472,0.0,3.0,-0.169476533848472,10.296020400447398,9.362981882168018,0.0008438840594843414,294.0,267.0,5.931972789115647,0.14232209737827714,0.3037542662116041,4197.0,9708.0,8.0,5.0,3.0,65.0,0.0,2.0,,65.0,0.0005150391429748661,0.00030902348578491963,0.0,0.6,13.0,0.0,1.0,21.666666666666668,65.0,3.0,3.0
178,3397.0,9734.0,5.730939063879894,0.0016875556725205812,0.002085887558888408,1.2220333473120033,-0.1696550600817196,0.0,3.0,-0.1696550600817196,10.297789348258794,9.371985322204377,0.0008426628666534542,294.0,267.0,5.9523809523809526,0.14232209737827714,0.3037542662116041,4218.0,9734.0,8.0,5.0,3.0,66.0,0.0,2.0,0.0,66.0,0.000513663447709061,0.00030819806862543664,0.0,0.6,13.2,0.0,1.0,22.0,66.0,3.0,3.0
179,3397.0,9734.0,5.730939063879894,0.0016875556725205812,0.002085887558888408,1.2220333473120033,-0.1696550600817196,0.0,3.0,-0.1696550600817196,10.297789348258794,9.371985322204377,0.0008426628666534542,294.0,267.0,5.9523809523809526,0.14232209737827714,0.3037542662116041,4218.0,9734.0,8.0,5.0,3.0,66.0,0.0,2.0,,66.0,0.000513663447709061,0.00030819806862543664,0.0,0.6,13.2,0.0,1.0,22.0,66.0,3.0,3.0
180,3404.0,9760.0,5.73443008225617,0.0016851102210567643,0.002094119359194443,1.2302897438858131,-0.16984585156952503,0.0,3.0,-0.16984585156952503,10.299540159725684,9.380633795601291,0.0008414445713275735,294.0,267.0,5.9727891156462585,0.14232209737827714,0.3037542662116041,4239.0,9760.0,8.0,5.0,3.0,67.0,0.0,2.0,0.0,67.0,0.0005122950819672131,0.0003073770491803279,0.0,0.6,13.4,0.0,1.0,22.333333333333332,67.0,3.0,3.0
181,3404.0,9760.0,5.73443008225617,0.0016851102210567643,0.002094119359194443,1.2302897438858131,-0.16984585156952503,0.0,3.0,-0.16984585156952503,10.299540159725684,9.380633795601291,0.0008414445713275735,294.0,267.0,5.9727891156462585,0.14232209737827714,0.3037542662116041,4239.0,9760.0,8.0,5.0,3.0,67.0,0.0,2.0,,67.0,0.0005122950819672131,0.0003073770491803279,0.0,0.6,13.4,0.0,1.0,22.333333333333332,67.0,3.0,3.0
182,3411.0,9786.0,5.737906772207563,0.0016826706076855027,0.0021032249188817458,1.2386597205601784,-0.17003923482058894,0.0,3.0,-0.17003923482058894,10.301269369970807,9.389530528131699,0.0008402291687240506,294.0,267.0,5.993197278911564,0.14232209737827714,0.3037542662116041,4260.0,9786.0,8.0,5.0,3.0,68.0,0.0,2.0,0.0,68.0,0.0005109339873288372,0.00030656039239730225,0.0,0.6,13.6,0.0,1.0,22.666666666666668,68.0,3.0,3.0
183,3411.0,9786.0,5.737906772207563,0.0016826706076855027,0.0021032249188817458,1.2386597205601784,-0.17003923482058894,0.0,3.0,-0.17003923482058894,10.301269369970807,9.389530528131699,0.0008402291687240506,294.0,267.0,5.993197278911564,0.14232209737827714,0.3037542662116041,4260.0,9786.0,8.0,5.0,3.0,68.0,0.0,2.0,,68.0,0.0005109339873288372,0.00030656039239730225,0.0,0.6,13.6,0.0,1.0,22.666666666666668,68.0,3.0,3.0
184,3418.0,9812.0,5.7413692217671155,0.0016802368222906395,0.002111570321571305,1.2470811587537205,-0.17024439484256038,0.0,3.0,-0.17024439484256038,10.302981222117175,9.39809058083307,0.0008390166539926819,294.0,267.0,6.01360544217687,0.14232209737827714,0.3037542662116041,4281.0,9812.0,8.0,5.0,3.0,69.0,0.0,2.0,0.0,69.0,0.0005095801059926621,0.0003057480635955972,0.0,0.6,13.8,0.0,1.0,23.0,69.0,3.0,3.0
185,3418.0,9812.0,5.7413692217671155,0.0016802368222906395,0.002111570321571305,1.2470811587537205,-0.17024439484256038,0.0,3.0,-0.17024439484256038,10.302981222117175,9.39809058083307,0.0008390166539926819,294.0,267.0,6.01360544217687,0.14232209737827714,0.3037542662116041,4281.0,9812.0,8.0,5.0,3.0,69.0,0.0,2.0,,69.0,0.0005095801059926621,0.0003057480635955972,0.0,0.6,13.8,0.0,1.0,23.0,69.0,3.0,3.0
186,3425.0,9838.0,5.744817518248175,0.0016778088546285557,0.0021207816933674216,1.2556150184638355,-0.17045233316065755,0.0,3.0,-0.17045233316065755,10.304672345726585,9.406882804065242,0.0008378070222174863,294.0,267.0,6.034013605442177,0.14232209737827714,0.3037542662116041,4302.0,9838.0,8.0,5.0,3.0,70.0,0.0,2.0,0.0,70.0,0.0005082333807684489,0.00030494002846106935,0.0,0.6,14.0,0.0,1.0,23.333333333333332,70.0,3.0,3.0
187,3425.0,9838.0,5.744817518248175,0.0016778088546285557,0.0021207816933674216,1.2556150184638355,-0.17045233316065755,0.0,3.0,-0.17045233316065755,10.304672345726585,9.406882804065242,0.0008378070222174863,294.0,267.0,6.034013605442177,0.14232209737827714,0.3037542662116041,4302.0,9838.0,8.0,5.0,3.0,70.0,0.0,2.0,,70.0,0.0005082333807684489,0.00030494002846106935,0.0,0.6,14.0,0.0,1.0,23.333333333333332,70.0,3.0,3.0
188,3432.0,9864.0,5.748251748251748,0.0016753866943316085,0.00212923705057018,1.2641995699313324,-0.17067154102220905,0.0,3.0,-0.17067154102220905,10.306346844695526,9.415355732376627,0.0008366002684184503,294.0,267.0,6.054421768707483,0.14232209737827714,0.3037542662116041,4323.0,9864.0,8.0,5.0,3.0,71.0,0.0,2.0,0.0,71.0,0.0005068937550689375,0.00030413625304136254,0.0,0.6,14.2,0.0,1.0,23.666666666666668,71.0,3.0,3.0
189,3432.0,9864.0,5.748251748251748,0.0016753866943316085,0.00212923705057018,1.2641995699313324,-0.17067154102220905,0.0,3.0,-0.17067154102220905,10.306346844695526,9.415355732376627,0.0008366002684184503,294.0,267.0,6.054421768707483,0.14232209737827714,0.3037542662116041,4323.0,9864.0,8.0,5.0,3.0,71.0,0.0,2.0,,71.0,0.0005068937550689375,0.00030413625304136254,0.0,0.6,14.2,0.0,1.0,23.666666666666668,71.0,3.0,3.0
190,3439.0,9890.0,5.751671997673743,0.0016729703309115015,0.0021385506677577652,1.2728954011844062,-0.1708936431759546,0.0,3.0,-0.1708936431759546,10.308001438865382,9.424045605062506,0.0008353963875532364,294.0,267.0,6.074829931972789,0.14232209737827714,0.3037542662116041,4344.0,9890.0,8.0,5.0,3.0,72.0,0.0,2.0,0.0,72.0,0.0005055611729019212,0.00030333670374115267,0.0,0.6,14.4,0.0,1.0,24.0,72.0,3.0,3.0
191,3439.0,9890.0,5.751671997673743,0.0016729703309115015,0.0021385506677577652,1.2728954011844062,-0.1708936431759546,0.0,3.0,-0.1708936431759546,10.308001438865382,9.424045605062506,0.0008353963875532364,294.0,267.0,6.074829931972789,0.14232209737827714,0.3037542662116041,4344.0,9890.0,8.0,5.0,3.0,72.0,0.0,2.0,,72.0,0.0005055611729019212,0.00030333670374115267,0.0,0.6,14.4,0.0,1.0,24.0,72.0,3.0,3.0
192,3446.0,9916.0,5.75507835171213,0.0016705597537625923,0.0021471124304783384,1.2816411598794992,-0.1711265020507229,0.0,3.0,-0.1711265020507229,10.309640100507693,9.43243271190865,0.0008341953745188598,294.0,267.0,6.095238095238095,0.14232209737827714,0.3037542662116041,4365.0,9916.0,8.0,5.0,3.0,73.0,0.0,2.0,0.0,73.0,0.0005042355788624445,0.0003025413473174667,0.0,0.6,14.6,0.0,1.0,24.333333333333332,73.0,3.0,3.0
193,3446.0,9916.0,5.75507835171213,0.0016705597537625923,0.0021471124304783384,1.2816411598794992,-0.1711265020507229,0.0,3.0,-0.1711265020507229,10.309640100507693,9.43243271190865,0.0008341953745188598,294.0,267.0,6.095238095238095,0.14232209737827714,0.3037542662116041,4365.0,9916.0,8.0,5.0,3.0,73.0,0.0,2.0,,73.0,0.0005042355788624445,0.0003025413473174667,0.0,0.6,14.6,0.0,1.0,24.333333333333332,73.0,3.0,3.0
194,3453.0,9942.0,5.758470894874023,0.001668154952165128,0.0021565248262499937,1.290497073413942,-0.17136231718680345,0.0,3.0,-0.17136231718680345,10.311259635829199,9.441022353653727,0.0008329972241533298,294.0,267.0,6.115646258503402,0.14232209737827714,0.3037542662116041,4386.0,9942.0,8.0,5.0,3.0,74.0,0.0,2.0,0.0,74.0,0.0005029169181251257,0.00030175015087507544,0.0,0.6,14.8,0.0,1.0,24.666666666666668,74.0,3.0,3.0
195,3453.0,9942.0,5.758470894874023,0.001668154952165128,0.0021565248262499937,1.290497073413942,-0.17136231718680345,0.0,3.0,-0.17136231718680345,10.311259635829199,9.441022353653727,0.0008329972241533298,294.0,267.0,6.115646258503402,0.14232209737827714,0.3037542662116041,4386.0,9942.0,8.0,5.0,3.0,74.0,0.0,2.0,,74.0,0.0005029169181251257,0.00030175015087507544,0.0,0.6,14.8,0.0,1.0,24.666666666666668,74.0,3.0,3.0
196,3460.0,9968.0,5.761849710982659,0.0016657559152884241,0.002165189541319192,1.299402156249421,-0.1716083801235626,0.0,3.0,-0.1716083801235626,10.31286389249123,9.449324946428856,0.0008318019312372615,294.0,267.0,6.136054421768708,0.14232209737827714,0.3037542662116041,4407.0,9968.0,8.0,5.0,3.0,75.0,0.0,2.0,0.0,75.0,0.0005016051364365971,0.00030096308186195825,0.0,0.6,15.0,0.0,1.0,25.0,75.0,3.0,3.0
197,3460.0,9968.0,5.761849710982659,0.0016657559152884241,0.002165189541319192,1.299402156249421,-0.1716083801235626,0.0,3.0,-0.1716083801235626,10.31286389249123,9.449324946428856,0.0008318019312372615,294.0,267.0,6.136054421768708,0.14232209737827714,0.3037542662116041,4407.0,9968.0,8.0,5.0,3.0,75.0,0.0,2.0,,75.0,0.0005016051364365971,0.00030096308186195825,0.0,0.6,15.0,0.0,1.0,25.0,75.0,3.0,3.0
198,3467.0,9994.0,5.765214883184309,0.0016633626321939728,0.002174697345456296,1.3084162856439974,-0.17185742017701375,0.0,3.0,-0.17185742017701375,10.314449759380315,9.45781643779458,0.0008306094904954531,294.0,267.0,6.156462585034014,0.14232209737827714,0.3037542662116041,4428.0,9994.0,8.0,5.0,3.0,76.0,0.0,2.0,0.0,76.0,0.0005003001801080648,0.0003001801080648389,0.0,0.6,15.2,0.0,1.0,25.333333333333332,76.0,3.0,3.0
199,3467.0,9994.0,5.765214883184309,0.0016633626321939728,0.002174697345456296,1.3084162856439974,-0.17185742017701375,0.0,3.0,-0.17185742017701375,10.314449759380315,9.45781643779458,0.0008306094904954531,294.0,267.0,6.156462585034014,0.14232209737827714,0.3037542662116041,4428.0,9994.0,8.0,5.0,3.0,76.0,0.0,2.0,,76.0,0.0005003001801080648,0.0003001801080648389,0.0,0.6,15.2,0.0,1.0,25.333333333333332,76.0,3.0,3.0
200,3474.0,10020.0,5.768566493955095,0.0016609750918384957,0.0021834616526077467,1.3174788329751097,-0.17211620972154848,0.0,3.0,-0.17211620972154848,10.31602096603389,9.466035826145884,0.0008294198965984338,294.0,267.0,6.1768707482993195,0.14232209737827714,0.3037542662116041,4449.0,10020.0,8.0,5.0,3.0,77.0,0.0,2.0,0.0,77.0,0.000499001996007984,0.0002994011976047904,0.0,0.6,15.4,0.0,1.0,25.666666666666668,77.0,3.0,3.0
201,3474.0,10020.0,5.768566493955095,0.0016609750918384957,0.0021834616526077467,1.3174788329751097,-0.17211620972154848,0.0,3.0,-0.17211620972154848,10.31602096603389,9.466035826145884,0.0008294198965984338,294.0,267.0,6.1768707482993195,0.14232209737827714,0.3037542662116041,4449.0,10020.0,8.0,5.0,3.0,77.0,0.0,2.0,,77.0,0.000499001996007984,0.0002994011976047904,0.0,0.6,15.4,0.0,1.0,25.666666666666668,77.0,3.0,3.0
202,3481.0,10046.0,5.7719046251077275,0.001658593283076933,0.002193061588319938,1.3266493350932922,-0.17237796620018564,0.0,3.0,-0.17237796620018564,10.317574480545815,9.474431208616991,0.0008282331441639809,294.0,267.0,6.197278911564626,0.14232209737827714,0.3037542662116041,4470.0,10046.0,8.0,5.0,3.0,78.0,0.0,2.0,0.0,78.0,0.0004977105315548477,0.00029862631893290864,0.0,0.6,15.6,0.0,1.0,26.0,78.0,3.0,3.0
203,3481.0,10046.0,5.7719046251077275,0.001658593283076933,0.002193061588319938,1.3266493350932922,-0.17237796620018564,0.0,3.0,-0.17237796620018564,10.317574480545815,9.474431208616991,0.0008282331441639809,294.0,267.0,6.197278911564626,0.14232209737827714,0.3037542662116041,4470.0,10046.0,8.0,5.0,3.0,78.0,0.0,2.0,,78.0,0.0004977105315548477,0.00029862631893290864,0.0,0.6,15.6,0.0,1.0,26.0,78.0,3.0,3.0
204,3488.0,10072.0,5.775229357798165,0.0016562171946653756,0.0022019222173837627,1.3358675110560203,-0.17264898906361886,0.0,3.0,-0.17264898906361886,10.319113920338832,9.482568702224244,0.0008270492277586062,294.0,267.0,6.217687074829932,0.14232209737827714,0.3037542662116041,4491.0,10072.0,8.0,5.0,3.0,79.0,0.0,2.0,0.0,79.0,0.0004964257347100874,0.00029785544082605245,0.0,0.6,15.8,0.0,1.0,26.333333333333332,79.0,3.0,3.0
205,3488.0,10072.0,5.775229357798165,0.0016562171946653756,0.0022019222173837627,1.3358675110560203,-0.17264898906361886,0.0,3.0,-0.17264898906361886,10.319113920338832,9.482568702224244,0.0008270492277586062,294.0,267.0,6.217687074829932,0.14232209737827714,0.3037542662116041,4491.0,10072.0,8.0,5.0,3.0,79.0,0.0,2.0,,79.0,0.0004964257347100874,0.00029785544082605245,0.0,0.6,15.8,0.0,1.0,26.333333333333332,79.0,3.0,3.0
206,3495.0,10098.0,5.778540772532189,0.0016538468152639345,0.00221161109829603,1.3451925663544708,-0.17292294548214077,0.0,3.0,-0.17292294548214077,10.320636329440216,9.490869978096882,0.0008258681418990137,294.0,267.0,6.238095238095238,0.14232209737827714,0.3037542662116041,4512.0,10098.0,8.0,5.0,3.0,80.0,0.0,2.0,0.0,80.0,0.0004951475539710833,0.00029708853238265005,0.0,0.6,16.0,0.0,1.0,26.666666666666668,80.0,3.0,3.0
207,3495.0,10098.0,5.778540772532189,0.0016538468152639345,0.00221161109829603,1.3451925663544708,-0.17292294548214077,0.0,3.0,-0.17292294548214077,10.320636329440216,9.490869978096882,0.0008258681418990137,294.0,267.0,6.238095238095238,0.14232209737827714,0.3037542662116041,4512.0,10098.0,8.0,5.0,3.0,80.0,0.0,2.0,,80.0,0.0004951475539710833,0.00029708853238265005,0.0,0.6,16.0,0.0,1.0,26.666666666666668,80.0,3.0,3.0
208,3495.0,10098.0,5.778540772532189,0.0016538468152639345,0.00221161109829603,1.3451925663544708,-0.17292294548214077,0.0,3.0,-0.17292294548214077,10.320636329440216,9.490869978096882,0.0008258681418990137,294.0,267.0,6.238095238095238,0.14232209737827714,0.3037542662116041,4512.0,10098.0,8.0,5.0,3.0,80.0,0.0,2.0,,80.0,0.0004951475539710833,0.00029708853238265005,0.0,0.6,16.0,0.0,1.0,26.666666666666668,80.0,3.0,3.0
209,3495.0,10098.0,5.778540772532189,0.0016538468152639345,0.00221161109829603,1.3451925663544708,-0.17292294548214077,0.0,3.0,-0.17292294548214077,10.320636329440216,9.490869978096882,0.0008258681418990137,294.0,267.0,6.238095238095238,0.14232209737827714,0.3037542662116041,4512.0,10098.0,8.0,5.0,3.0,80.0,0.0,2.0,,80.0,0.0004951475539710833,0.00029708853238265005,0.0,0.6,16.0,0.0,1.0,26.666666666666668,80.0,3.0,3.0
210,3495.0,10098.0,5.778540772532189,0.0016538468152639345,0.00221161109829603,1.3451925663544708,-0.17292294548214077,0.0,3.0,-0.17292294548214077,10.320636329440216,9.490869978096882,0.0008258681418990137,294.0,267.0,6.238095238095238,0.14232209737827714,0.3037542662116041,4512.0,10098.0,8.0,5.0,3.0,80.0,0.0,2.0,,80.0,0.0004951475539710833,0.00029708853238265005,0.0,0.6,16.0,0.0,1.0,26.666666666666668,80.0,3.0,3.0
211,3495.0,10098.0,5.778540772532189,0.0016538468152639345,0.00221161109829603,1.3451925663544708,-0.17292294548214077,0.0,3.0,-0.17292294548214077,10.320636329440216,9.490869978096882,0.0008258681418990137,294.0,267.0,6.238095238095238,0.14232209737827714,0.3037542662116041,4512.0,10098.0,8.0,5.0,3.0,80.0,0.0,2.0,,80.0,0.0004951475539710833,0.00029708853238265005,0.0,0.6,16.0,0.0,1.0,26.666666666666668,80.0,3.0,3.0
212,3495.0,10098.0,5.778540772532189,0.0016538468152639345,0.00221161109829603,1.3451925663544708,-0.17292294548214077,0.0,3.0,-0.17292294548214077,10.320636329440216,9.490869978096882,0.0008258681418990137,294.0,267.0,6.238095238095238,0.14232209737827714,0.3037542662116041,4512.0,10098.0,8.0,5.0,3.0,80.0,0.0,2.0,,80.0,0.0004951475539710833,0.00029708853238265005,0.0,0.6,16.0,0.0,1.0,26.666666666666668,80.0,3.0,3.0
213,3495.0,10098.0,5.778540772532189,0.0016538468152639345,0.00221161109829603,1.3451925663544708,-0.17292294548214077,0.0,3.0,-0.17292294548214077,10.320636329440216,9.490869978096882,0.0008258681418990137,294.0,267.0,6.238095238095238,0.14232209737827714,0.3037542662116041,4512.0,10098.0,8.0,5.0,3.0,80.0,0.0,2.0,,80.0,0.0004951475539710833,0.00029708853238265005,0.0,0.6,16.0,0.0,1.0,26.666666666666668,80.0,3.0,3.0
214,3495.0,10098.0,5.778540772532189,0.0016538468152639345,0.00221161109829603,1.3451925663544708,-0.17292294548214077,0.0,3.0,-0.17292294548214077,10.320636329440216,9.490869978096882,0.0008258681418990137,294.0,267.0,6.238095238095238,0.14232209737827714,0.3037542662116041,4512.0,10098.0,8.0,5.0,3.0,80.0,0.0,2.0,,80.0,0.0004951475539710833,0.00029708853238265005,0.0,0.6,16.0,0.0,1.0,26.666666666666668,80.0,3.0,3.0
215,3495.0,10098.0,5.778540772532189,0.0016538468152639345,0.00221161109829603,1.3451925663544708,-0.17292294548214077,0.0,3.0,-0.17292294548214077,10.320636329440216,9.490869978096882,0.0008258681418990137,294.0,267.0,6.238095238095238,0.14232209737827714,0.3037542662116041,4512.0,10098.0,8.0,5.0,3.0,80.0,0.0,2.0,,80.0,0.0004951475539710833,0.00029708853238265005,0.0,0.6,16.0,0.0,1.0,26.666666666666668,80.0,3.0,3.0
216,3495.0,10098.0,5.778540772532189,0.0016538468152639345,0.00221161109829603,1.3451925663544708,-0.17292294548214077,0.0,3.0,-0.17292294548214077,10.320636329440216,9.490869978096882,0.0008258681418990137,294.0,267.0,6.238095238095238,0.14232209737827714,0.3037542662116041,4512.0,10098.0,8.0,5.0,3.0,80.0,0.0,2.0,,80.0,0.0004951475539710833,0.00029708853238265005,0.0,0.6,16.0,0.0,1.0,26.666666666666668,80.0,3.0,3.0
217,3502.0,10124.0,5.7818389491719016,0.0016514821334395605,0.0022205648665021647,1.3545645590843036,-0.17320570337994612,0.0,3.0,-0.17320570337994612,10.3221452187354,9.498926884495898,0.0008246898810535287,294.0,267.0,6.258503401360544,0.14232209737827714,0.3037542662116041,4533.0,10124.0,8.0,5.0,3.0,81.0,0.0,2.0,0.0,81.0,0.0004938759383642829,0.00029632556301856976,0.0,0.6,16.2,0.0,1.0,27.0,81.0,3.0,3.0
218,3502.0,10124.0,5.7818389491719016,0.0016514821334395605,0.0022205648665021647,1.3545645590843036,-0.17320570337994612,0.0,3.0,-0.17320570337994612,10.3221452187354,9.498926884495898,0.0008246898810535287,294.0,267.0,6.258503401360544,0.14232209737827714,0.3037542662116041,4533.0,10124.0,8.0,5.0,3.0,81.0,0.0,2.0,,81.0,0.0004938759383642829,0.00029632556301856976,0.0,0.6,16.2,0.0,1.0,27.0,81.0,3.0,3.0
219,3509.0,10150.0,5.785123966942149,0.0016491231376687995,0.0022303395937781174,1.3640423718090877,-0.17349134434233507,0.0,3.0,-0.17349134434233507,10.323637705096107,9.50713601672974,0.0008235144396434978,294.0,267.0,6.27891156462585,0.14232209737827714,0.3037542662116041,4554.0,10150.0,8.0,5.0,3.0,82.0,0.0,2.0,0.0,82.0,0.0004926108374384236,0.00029556650246305416,0.0,0.6,16.4,0.0,1.0,27.333333333333332,82.0,3.0,3.0
220,3509.0,10150.0,5.785123966942149,0.0016491231376687995,0.0022303395937781174,1.3640423718090877,-0.17349134434233507,0.0,3.0,-0.17349134434233507,10.323637705096107,9.50713601672974,0.0008235144396434978,294.0,267.0,6.27891156462585,0.14232209737827714,0.3037542662116041,4554.0,10150.0,8.0,5.0,3.0,82.0,0.0,2.0,,82.0,0.0004926108374384236,0.00029556650246305416,0.0,0.6,16.4,0.0,1.0,27.333333333333332,82.0,3.0,3.0
221,3509.0,10150.0,5.785123966942149,0.0016491231376687995,0.0022303395937781174,1.3640423718090877,-0.17349134434233507,0.0,3.0,-0.17349134434233507,10.323637705096107,9.50713601672974,0.0008235144396434978,294.0,267.0,6.27891156462585,0.14232209737827714,0.3037542662116041,4554.0,10150.0,8.0,5.0,3.0,82.0,0.0,2.0,,82.0,0.0004926108374384236,0.00029556650246305416,0.0,0.6,16.4,0.0,1.0,27.333333333333332,82.0,3.0,3.0
222,3509.0,10150.0,5.785123966942149,0.0016491231376687995,0.0022303395937781174,1.3640423718090877,-0.17349134434233507,0.0,3.0,-0.17349134434233507,10.323637705096107,9.50713601672974,0.0008235144396434978,294.0,267.0,6.27891156462585,0.14232209737827714,0.3037542662116041,4554.0,10150.0,8.0,5.0,3.0,82.0,0.0,2.0,,82.0,0.0004926108374384236,0.00029556650246305416,0.0,0.6,16.4,0.0,1.0,27.333333333333332,82.0,3.0,3.0
223,3509.0,10150.0,5.785123966942149,0.0016491231376687995,0.0022303395937781174,1.3640423718090877,-0.17349134434233507,0.0,3.0,-0.17349134434233507,10.323637705096107,9.50713601672974,0.0008235144396434978,294.0,267.0,6.27891156462585,0.14232209737827714,0.3037542662116041,4554.0,10150.0,8.0,5.0,3.0,82.0,0.0,2.0,,82.0,0.0004926108374384236,0.00029556650246305416,0.0,0.6,16.4,0.0,1.0,27.333333333333332,82.0,3.0,3.0
224,3509.0,10150.0,5.785123966942149,0.0016491231376687995,0.0022303395937781174,1.3640423718090877,-0.17349134434233507,0.0,3.0,-0.17349134434233507,10.323637705096107,9.50713601672974,0.0008235144396434978,294.0,267.0,6.27891156462585,0.14232209737827714,0.3037542662116041,4554.0,10150.0,8.0,5.0,3.0,82.0,0.0,2.0,,82.0,0.0004926108374384236,0.00029556650246305416,0.0,0.6,16.4,0.0,1.0,27.333333333333332,82.0,3.0,3.0
225,3516.0,10176.0,5.78839590443686,0.001646769816340501,0.0022393834031626436,1.3735663935611317,-0.17378534188376654,0.0,3.0,-0.17378534188376654,10.325117198056065,9.515113639215091,0.0008223418120446624,294.0,267.0,6.299319727891157,0.14232209737827714,0.3037542662116041,4575.0,10176.0,8.0,5.0,3.0,83.0,0.0,2.0,0.0,83.0,0.0004913522012578616,0.00029481132075471697,0.0,0.6,16.6,0.0,1.0,27.666666666666668,83.0,3.0,3.0
226,3516.0,10176.0,5.78839590443686,0.001646769816340501,0.0022393834031626436,1.3735663935611317,-0.17378534188376654,0.0,3.0,-0.17378534188376654,10.325117198056065,9.515113639215091,0.0008223418120446624,294.0,267.0,6.299319727891157,0.14232209737827714,0.3037542662116041,4575.0,10176.0,8.0,5.0,3.0,83.0,0.0,2.0,,83.0,0.0004913522012578616,0.00029481132075471697,0.0,0.6,16.6,0.0,1.0,27.666666666666668,83.0,3.0,3.0
227,3523.0,10202.0,5.791654839625319,0.0016444221577584669,0.00224924096275389,1.3831951918510093,-0.17408215959336,0.0,3.0,-0.17408215959336,10.32658088441484,9.523232551282158,0.0008211719925885038,294.0,267.0,6.319727891156463,0.14232209737827714,0.3037542662116041,4596.0,10202.0,8.0,5.0,3.0,84.0,0.0,2.0,0.0,84.0,0.0004900999803960007,0.0002940599882376005,0.0,0.6,16.8,0.0,1.0,28.0,84.0,3.0,3.0
228,3523.0,10202.0,5.791654839625319,0.0016444221577584669,0.00224924096275389,1.3831951918510093,-0.17408215959336,0.0,3.0,-0.17408215959336,10.32658088441484,9.523232551282158,0.0008211719925885038,294.0,267.0,6.319727891156463,0.14232209737827714,0.3037542662116041,4596.0,10202.0,8.0,5.0,3.0,84.0,0.0,2.0,,84.0,0.0004900999803960007,0.0002940599882376005,0.0,0.6,16.8,0.0,1.0,28.0,84.0,3.0,3.0
229,3523.0,10202.0,5.791654839625319,0.0016444221577584669,0.00224924096275389,1.3831951918510093,-0.17408215959336,0.0,3.0,-0.17408215959336,10.32658088441484,9.523232551282158,0.0008211719925885038,294.0,267.0,6.319727891156463,0.14232209737827714,0.3037542662116041,4596.0,10202.0,8.0,5.0,3.0,84.0,0.0,2.0,,84.0,0.0004900999803960007,0.0002940599882376005,0.0,0.6,16.8,0.0,1.0,28.0,84.0,3.0,3.0
230,3523.0,10202.0,5.791654839625319,0.0016444221577584669,0.00224924096275389,1.3831951918510093,-0.17408215959336,0.0,3.0,-0.17408215959336,10.32658088441484,9.523232551282158,0.0008211719925885038,294.0,267.0,6.319727891156463,0.14232209737827714,0.3037542662116041,4596.0,10202.0,8.0,5.0,3.0,84.0,0.0,2.0,,84.0,0.0004900999803960007,0.0002940599882376005,0.0,0.6,16.8,0.0,1.0,28.0,84.0,3.0,3.0
231,3523.0,10202.0,5.791654839625319,0.0016444221577584669,0.00224924096275389,1.3831951918510093,-0.17408215959336,0.0,3.0,-0.17408215959336,10.32658088441484,9.523232551282158,0.0008211719925885038,294.0,267.0,6.319727891156463,0.14232209737827714,0.3037542662116041,4596.0,10202.0,8.0,5.0,3.0,84.0,0.0,2.0,,84.0,0.0004900999803960007,0.0002940599882376005,0.0,0.6,16.8,0.0,1.0,28.0,84.0,3.0,3.0
232,3523.0,10202.0,5.791654839625319,0.0016444221577584669,0.00224924096275389,1.3831951918510093,-0.17408215959336,0.0,3.0,-0.17408215959336,10.32658088441484,9.523232551282158,0.0008211719925885038,294.0,267.0,6.319727891156463,0.14232209737827714,0.3037542662116041,4596.0,10202.0,8.0,5.0,3.0,84.0,0.0,2.0,,84.0,0.0004900999803960007,0.0002940599882376005,0.0,0.6,16.8,0.0,1.0,28.0,84.0,3.0,3.0
233,3523.0,10202.0,5.791654839625319,0.0016444221577584669,0.00224924096275389,1.3831951918510093,-0.17408215959336,0.0,3.0,-0.17408215959336,10.32658088441484,9.523232551282158,0.0008211719925885038,294.0,267.0,6.319727891156463,0.14232209737827714,0.3037542662116041,4596.0,10202.0,8.0,5.0,3.0,84.0,0.0,2.0,,84.0,0.0004900999803960007,0.0002940599882376005,0.0,0.6,16.8,0.0,1.0,28.0,84.0,3.0,3.0
234,3523.0,10202.0,5.791654839625319,0.0016444221577584669,0.00224924096275389,1.3831951918510093,-0.17408215959336,0.0,3.0,-0.17408215959336,10.32658088441484,9.523232551282158,0.0008211719925885038,294.0,267.0,6.319727891156463,0.14232209737827714,0.3037542662116041,4596.0,10202.0,8.0,5.0,3.0,84.0,0.0,2.0,,84.0,0.0004900999803960007,0.0002940599882376005,0.0,0.6,16.8,0.0,1.0,28.0,84.0,3.0,3.0
235,3530.0,10228.0,5.794900849858357,0.0016420801501440512,0.0022583717976623918,1.3928694790385516,-0.17438690990773575,0.0,3.0,-0.17438690990773575,10.328032077183767,9.53113218691475,0.0008200049755635628,294.0,267.0,6.340136054421769,0.14232209737827714,0.3037542662116041,4617.0,10228.0,8.0,5.0,3.0,85.0,0.0,2.0,0.0,85.0,0.0004888541259288229,0.0002933124755572937,0.0,0.6,17.0,0.0,1.0,28.333333333333332,85.0,3.0,3.0
236,3530.0,10228.0,5.794900849858357,0.0016420801501440512,0.0022583717976623918,1.3928694790385516,-0.17438690990773575,0.0,3.0,-0.17438690990773575,10.328032077183767,9.53113218691475,0.0008200049755635628,294.0,267.0,6.340136054421769,0.14232209737827714,0.3037542662116041,4617.0,10228.0,8.0,5.0,3.0,85.0,0.0,2.0,,85.0,0.0004888541259288229,0.0002933124755572937,0.0,0.6,17.0,0.0,1.0,28.333333333333332,85.0,3.0,3.0
237,3537.0,10254.0,5.7981340118744695,0.0016397437816387075,0.002268309257675115,1.4026475149512663,-0.17469440871164138,0.0,3.0,-0.17469440871164138,10.329468030334313,9.539162762669354,0.0008188407552167326,294.0,267.0,6.360544217687075,0.14232209737827714,0.3037542662116041,4638.0,10254.0,8.0,5.0,3.0,86.0,0.0,2.0,0.0,86.0,0.0004876145894285157,0.0002925687536571094,0.0,0.6,17.2,0.0,1.0,28.666666666666668,86.0,3.0,3.0
238,3537.0,10254.0,5.7981340118744695,0.0016397437816387075,0.002268309257675115,1.4026475149512663,-0.17469440871164138,0.0,3.0,-0.17469440871164138,10.329468030334313,9.539162762669354,0.0008188407552167326,294.0,267.0,6.360544217687075,0.14232209737827714,0.3037542662116041,4638.0,10254.0,8.0,5.0,3.0,86.0,0.0,2.0,,86.0,0.0004876145894285157,0.0002925687536571094,0.0,0.6,17.2,0.0,1.0,28.666666666666668,86.0,3.0,3.0
239,3537.0,10254.0,5.7981340118744695,0.0016397437816387075,0.002268309257675115,1.4026475149512663,-0.17469440871164138,0.0,3.0,-0.17469440871164138,10.329468030334313,9.539162762669354,0.0008188407552167326,294.0,267.0,6.360544217687075,0.14232209737827714,0.3037542662116041,4638.0,10254.0,8.0,5.0,3.0,86.0,0.0,2.0,,86.0,0.0004876145894285157,0.0002925687536571094,0.0,0.6,17.2,0.0,1.0,28.666666666666668,86.0,3.0,3.0
240,3537.0,10254.0,5.7981340118744695,0.0016397437816387075,0.002268309257675115,1.4026475149512663,-0.17469440871164138,0.0,3.0,-0.17469440871164138,10.329468030334313,9.539162762669354,0.0008188407552167326,294.0,267.0,6.360544217687075,0.14232209737827714,0.3037542662116041,4638.0,10254.0,8.0,5.0,3.0,86.0,0.0,2.0,,86.0,0.0004876145894285157,0.0002925687536571094,0.0,0.6,17.2,0.0,1.0,28.666666666666668,86.0,3.0,3.0
241,3537.0,10254.0,5.7981340118744695,0.0016397437816387075,0.002268309257675115,1.4026475149512663,-0.17469440871164138,0.0,3.0,-0.17469440871164138,10.329468030334313,9.539162762669354,0.0008188407552167326,294.0,267.0,6.360544217687075,0.14232209737827714,0.3037542662116041,4638.0,10254.0,8.0,5.0,3.0,86.0,0.0,2.0,,86.0,0.0004876145894285157,0.0002925687536571094,0.0,0.6,17.2,0.0,1.0,28.666666666666668,86.0,3.0,3.0
242,3537.0,10254.0,5.7981340118744695,0.0016397437816387075,0.002268309257675115,1.4026475149512663,-0.17469440871164138,0.0,3.0,-0.17469440871164138,10.329468030334313,9.539162762669354,0.0008188407552167326,294.0,267.0,6.360544217687075,0.14232209737827714,0.3037542662116041,4638.0,10254.0,8.0,5.0,3.0,86.0,0.0,2.0,,86.0,0.0004876145894285157,0.0002925687536571094,0.0,0.6,17.2,0.0,1.0,28.666666666666668,86.0,3.0,3.0
243,3544.0,10280.0,5.801354401805869,0.0016374130403064829,0.0022775241823576593,1.4124703281168773,-0.17500943734585864,0.0,3.0,-0.17500943734585864,10.330891964860026,9.546985700406617,0.0008176793257545261,294.0,267.0,6.380952380952381,0.14232209737827714,0.3037542662116041,4659.0,10280.0,8.0,5.0,3.0,87.0,0.0,2.0,0.0,87.0,0.00048638132295719845,0.00029182879377431906,0.0,0.6,17.4,0.0,1.0,29.0,87.0,3.0,3.0
244,3544.0,10280.0,5.801354401805869,0.0016374130403064829,0.0022775241823576593,1.4124703281168773,-0.17500943734585864,0.0,3.0,-0.17500943734585864,10.330891964860026,9.546985700406617,0.0008176793257545261,294.0,267.0,6.380952380952381,0.14232209737827714,0.3037542662116041,4659.0,10280.0,8.0,5.0,3.0,87.0,0.0,2.0,,87.0,0.00048638132295719845,0.00029182879377431906,0.0,0.6,17.4,0.0,1.0,29.0,87.0,3.0,3.0
245,3551.0,10306.0,5.804562095184455,0.0016350879141364665,0.002287538690528448,1.4223958775916128,-0.1753271367849285,0.0,3.0,-0.1753271367849285,10.332301199298168,9.554929783994101,0.0008165206813443185,294.0,267.0,6.401360544217687,0.14232209737827714,0.3037542662116041,4680.0,10306.0,8.0,5.0,3.0,88.0,0.0,2.0,0.0,88.0,0.0004851542790607413,0.0002910925674364448,0.0,0.6,17.6,0.0,1.0,29.333333333333332,88.0,3.0,3.0
246,3551.0,10306.0,5.804562095184455,0.0016350879141364665,0.002287538690528448,1.4223958775916128,-0.1753271367849285,0.0,3.0,-0.1753271367849285,10.332301199298168,9.554929783994101,0.0008165206813443185,294.0,267.0,6.401360544217687,0.14232209737827714,0.3037542662116041,4680.0,10306.0,8.0,5.0,3.0,88.0,0.0,2.0,,88.0,0.0004851542790607413,0.0002910925674364448,0.0,0.6,17.6,0.0,1.0,29.333333333333332,88.0,3.0,3.0
247,3551.0,10306.0,5.804562095184455,0.0016350879141364665,0.002287538690528448,1.4223958775916128,-0.1753271367849285,0.0,3.0,-0.1753271367849285,10.332301199298168,9.554929783994101,0.0008165206813443185,294.0,267.0,6.401360544217687,0.14232209737827714,0.3037542662116041,4680.0,10306.0,8.0,5.0,3.0,88.0,0.0,2.0,,88.0,0.0004851542790607413,0.0002910925674364448,0.0,0.6,17.6,0.0,1.0,29.333333333333332,88.0,3.0,3.0
248,3551.0,10306.0,5.804562095184455,0.0016350879141364665,0.002287538690528448,1.4223958775916128,-0.1753271367849285,0.0,3.0,-0.1753271367849285,10.332301199298168,9.554929783994101,0.0008165206813443185,294.0,267.0,6.401360544217687,0.14232209737827714,0.3037542662116041,4680.0,10306.0,8.0,5.0,3.0,88.0,0.0,2.0,,88.0,0.0004851542790607413,0.0002910925674364448,0.0,0.6,17.6,0.0,1.0,29.333333333333332,88.0,3.0,3.0
249,3558.0,10332.0,5.807757166947724,0.0016327683910451849,0.0022968348468212613,1.4323655013224474,-0.17565198428735498,0.0,3.0,-0.17565198428735498,10.333698866832611,9.56267730295427,0.0008153648161155647,294.0,267.0,6.421768707482993,0.14232209737827714,0.3037542662116041,4701.0,10332.0,8.0,5.0,3.0,89.0,0.0,2.0,0.0,89.0,0.00048393341076267905,0.00029036004645760743,0.0,0.6,17.8,0.0,1.0,29.666666666666668,89.0,3.0,3.0
250,3558.0,10332.0,5.807757166947724,0.0016327683910451849,0.0022968348468212613,1.4323655013224474,-0.17565198428735498,0.0,3.0,-0.17565198428735498,10.333698866832611,9.56267730295427,0.0008153648161155647,294.0,267.0,6.421768707482993,0.14232209737827714,0.3037542662116041,4701.0,10332.0,8.0,5.0,3.0,89.0,0.0,2.0,,89.0,0.00048393341076267905,0.00029036004645760743,0.0,0.6,17.8,0.0,1.0,29.666666666666668,89.0,3.0,3.0
251,3565.0,10358.0,5.8109396914446005,0.0016304544588789567,0.0023069236280951204,1.4424368640893568,-0.17597942101698086,0.0,3.0,-0.17597942101698086,10.335082348100066,9.570536698770827,0.0008142117241609933,294.0,267.0,6.442176870748299,0.14232209737827714,0.3037542662116041,4722.0,10358.0,8.0,5.0,3.0,90.0,0.0,2.0,0.0,90.0,0.00048271867155821587,0.00028963120293492954,0.0,0.6,18.0,0.0,1.0,30.0,90.0,3.0,3.0
252,3565.0,10358.0,5.8109396914446005,0.0016304544588789567,0.0023069236280951204,1.4424368640893568,-0.17597942101698086,0.0,3.0,-0.17597942101698086,10.335082348100066,9.570536698770827,0.0008142117241609933,294.0,267.0,6.442176870748299,0.14232209737827714,0.3037542662116041,4722.0,10358.0,8.0,5.0,3.0,90.0,0.0,2.0,,90.0,0.00048271867155821587,0.00028963120293492954,0.0,0.6,18.0,0.0,1.0,30.0,90.0,3.0,3.0
253,3565.0,10358.0,5.8109396914446005,0.0016304544588789567,0.0023069236280951204,1.4424368640893568,-0.17597942101698086,0.0,3.0,-0.17597942101698086,10.335082348100066,9.570536698770827,0.0008142117241609933,294.0,267.0,6.442176870748299,0.14232209737827714,0.3037542662116041,4722.0,10358.0,8.0,5.0,3.0,90.0,0.0,2.0,,90.0,0.00048271867155821587,0.00028963120293492954,0.0,0.6,18.0,0.0,1.0,30.0,90.0,3.0,3.0
254,3565.0,10358.0,5.8109396914446005,0.0016304544588789567,0.0023069236280951204,1.4424368640893568,-0.17597942101698086,0.0,3.0,-0.17597942101698086,10.335082348100066,9.570536698770827,0.0008142117241609933,294.0,267.0,6.442176870748299,0.14232209737827714,0.3037542662116041,4722.0,10358.0,8.0,5.0,3.0,90.0,0.0,2.0,,90.0,0.00048271867155821587,0.00028963120293492954,0.0,0.6,18.0,0.0,1.0,30.0,90.0,3.0,3.0
255,3565.0,10358.0,5.8109396914446005,0.0016304544588789567,0.0023069236280951204,1.4424368640893568,-0.17597942101698086,0.0,3.0,-0.17597942101698086,10.335082348100066,9.570536698770827,0.0008142117241609933,294.0,267.0,6.442176870748299,0.14232209737827714,0.3037542662116041,4722.0,10358.0,8.0,5.0,3.0,90.0,0.0,2.0,,90.0,0.00048271867155821587,0.00028963120293492954,0.0,0.6,18.0,0.0,1.0,30.0,90.0,3.0,3.0
256,3565.0,10358.0,5.8109396914446005,0.0016304544588789567,0.0023069236280951204,1.4424368640893568,-0.17597942101698086,0.0,3.0,-0.17597942101698086,10.335082348100066,9.570536698770827,0.0008142117241609933,294.0,267.0,6.442176870748299,0.14232209737827714,0.3037542662116041,4722.0,10358.0,8.0,5.0,3.0,90.0,0.0,2.0,,90.0,0.00048271867155821587,0.00028963120293492954,0.0,0.6,18.0,0.0,1.0,30.0,90.0,3.0,3.0
257,3565.0,10358.0,5.8109396914446005,0.0016304544588789567,0.0023069236280951204,1.4424368640893568,-0.17597942101698086,0.0,3.0,-0.17597942101698086,10.335082348100066,9.570536698770827,0.0008142117241609933,294.0,267.0,6.442176870748299,0.14232209737827714,0.3037542662116041,4722.0,10358.0,8.0,5.0,3.0,90.0,0.0,2.0,,90.0,0.00048271867155821587,0.00028963120293492954,0.0,0.6,18.0,0.0,1.0,30.0,90.0,3.0,3.0
258,3565.0,10358.0,5.8109396914446005,0.0016304544588789567,0.0023069236280951204,1.4424368640893568,-0.17597942101698086,0.0,3.0,-0.17597942101698086,10.335082348100066,9.570536698770827,0.0008142117241609933,294.0,267.0,6.442176870748299,0.14232209737827714,0.3037542662116041,4722.0,10358.0,8.0,5.0,3.0,90.0,0.0,2.0,,90.0,0.00048271867155821587,0.00028963120293492954,0.0,0.6,18.0,0.0,1.0,30.0,90.0,3.0,3.0
259,3565.0,10358.0,5.8109396914446005,0.0016304544588789567,0.0023069236280951204,1.4424368640893568,-0.17597942101698086,0.0,3.0,-0.17597942101698086,10.335082348100066,9.570536698770827,0.0008142117241609933,294.0,267.0,6.442176870748299,0.14232209737827714,0.3037542662116041,4722.0,10358.0,8.0,5.0,3.0,90.0,0.0,2.0,,90.0,0.00048271867155821587,0.00028963120293492954,0.0,0.6,18.0,0.0,1.0,30.0,90.0,3.0,3.0
260,3565.0,10358.0,5.8109396914446005,0.0016304544588789567,0.0023069236280951204,1.4424368640893568,-0.17597942101698086,0.0,3.0,-0.17597942101698086,10.335082348100066,9.570536698770827,0.0008142117241609933,294.0,267.0,6.442176870748299,0.14232209737827714,0.3037542662116041,4722.0,10358.0,8.0,5.0,3.0,90.0,0.0,2.0,,90.0,0.00048271867155821587,0.00028963120293492954,0.0,0.6,18.0,0.0,1.0,30.0,90.0,3.0,3.0
261,3572.0,10384.0,5.814109742441209,0.0016281461054161886,0.0023162982331844783,1.4525516068863287,-0.17631364452963394,0.0,3.0,-0.17631364452963394,10.336454692411504,9.578210066637912,0.000813061399537776,294.0,267.0,6.462585034013605,0.14232209737827714,0.3037542662116041,4743.0,10384.0,8.0,5.0,3.0,91.0,0.0,2.0,0.0,91.0,0.0004815100154083205,0.0002889060092449923,0.0,0.6,18.2,0.0,1.0,30.333333333333332,91.0,3.0,3.0
262,3572.0,10384.0,5.814109742441209,0.0016281461054161886,0.0023162982331844783,1.4525516068863287,-0.17631364452963394,0.0,3.0,-0.17631364452963394,10.336454692411504,9.578210066637912,0.000813061399537776,294.0,267.0,6.462585034013605,0.14232209737827714,0.3037542662116041,4743.0,10384.0,8.0,5.0,3.0,91.0,0.0,2.0,,91.0,0.0004815100154083205,0.0002889060092449923,0.0,0.6,18.2,0.0,1.0,30.333333333333332,91.0,3.0,3.0
263,3579.0,10410.0,5.8172673931265715,0.0016258433183696398,0.002326458587388624,1.4627671063322338,-0.1766503733939457,0.0,3.0,-0.1766503733939457,10.337813340167276,9.585986539349491,0.0008119138362686751,294.0,267.0,6.482993197278912,0.14232209737827714,0.3037542662116041,4764.0,10410.0,8.0,5.0,3.0,92.0,0.0,2.0,0.0,92.0,0.0004803073967339097,0.00028818443804034583,0.0,0.6,18.4,0.0,1.0,30.666666666666668,92.0,3.0,3.0
264,3579.0,10410.0,5.8172673931265715,0.0016258433183696398,0.002326458587388624,1.4627671063322338,-0.1766503733939457,0.0,3.0,-0.1766503733939457,10.337813340167276,9.585986539349491,0.0008119138362686751,294.0,267.0,6.482993197278912,0.14232209737827714,0.3037542662116041,4764.0,10410.0,8.0,5.0,3.0,92.0,0.0,2.0,,92.0,0.0004803073967339097,0.00028818443804034583,0.0,0.6,18.4,0.0,1.0,30.666666666666668,92.0,3.0,3.0
265,3579.0,10410.0,5.8172673931265715,0.0016258433183696398,0.002326458587388624,1.4627671063322338,-0.1766503733939457,0.0,3.0,-0.1766503733939457,10.337813340167276,9.585986539349491,0.0008119138362686751,294.0,267.0,6.482993197278912,0.14232209737827714,0.3037542662116041,4764.0,10410.0,8.0,5.0,3.0,92.0,0.0,2.0,,92.0,0.0004803073967339097,0.00028818443804034583,0.0,0.6,18.4,0.0,1.0,30.666666666666668,92.0,3.0,3.0
266,3579.0,10410.0,5.8172673931265715,0.0016258433183696398,0.002326458587388624,1.4627671063322338,-0.1766503733939457,0.0,3.0,-0.1766503733939457,10.337813340167276,9.585986539349491,0.0008119138362686751,294.0,267.0,6.482993197278912,0.14232209737827714,0.3037542662116041,4764.0,10410.0,8.0,5.0,3.0,92.0,0.0,2.0,,92.0,0.0004803073967339097,0.00028818443804034583,0.0,0.6,18.4,0.0,1.0,30.666666666666668,92.0,3.0,3.0
267,3592.0,10447.0,5.816815144766147,0.0016198315635661783,0.0023506479066253035,1.4684962154960575,-0.17637079936151714,0.0,3.0,-0.17637079936151714,10.34298760851975,9.605343254531164,0.0008089152583568534,294.0,267.0,6.517006802721088,0.14232209737827714,0.3037542662116041,4792.0,10447.0,9.0,6.0,4.0,93.0,0.0,2.0,0.0,93.0,0.0005743275581506652,0.0003828850387671102,0.0,0.6666666666666666,15.5,0.0,1.0,23.25,93.0,4.0,4.0
268,3592.0,10447.0,5.816815144766147,0.0016198315635661783,0.0023506479066253035,1.4684962154960575,-0.17637079936151714,0.0,3.0,-0.17637079936151714,10.34298760851975,9.605343254531164,0.0008089152583568534,294.0,267.0,6.517006802721088,0.14232209737827714,0.3037542662116041,4792.0,10447.0,9.0,6.0,4.0,93.0,0.0,2.0,,93.0,0.0005743275581506652,0.0003828850387671102,0.0,0.6666666666666666,15.5,0.0,1.0,23.25,93.0,4.0,4.0
269,3592.0,10447.0,5.816815144766147,0.0016198315635661783,0.0023506479066253035,1.4684962154960575,-0.17637079936151714,0.0,3.0,-0.17637079936151714,10.34298760851975,9.605343254531164,0.0008089152583568534,294.0,267.0,6.517006802721088,0.14232209737827714,0.3037542662116041,4792.0,10447.0,9.0,6.0,4.0,93.0,0.0,2.0,,93.0,0.0005743275581506652,0.0003828850387671102,0.0,0.6666666666666666,15.5,0.0,1.0,23.25,93.0,4.0,4.0
270,3592.0,10447.0,5.816815144766147,0.0016198315635661783,0.0023506479066253035,1.4684962154960575,-0.17637079936151714,0.0,3.0,-0.17637079936151714,10.34298760851975,9.605343254531164,0.0008089152583568534,294.0,267.0,6.517006802721088,0.14232209737827714,0.3037542662116041,4792.0,10447.0,9.0,6.0,4.0,93.0,0.0,2.0,,93.0,0.0005743275581506652,0.0003828850387671102,0.0,0.6666666666666666,15.5,0.0,1.0,23.25,93.0,4.0,4.0
271,3592.0,10447.0,5.816815144766147,0.0016198315635661783,0.0023506479066253035,1.4684962154960575,-0.17637079936151714,0.0,3.0,-0.17637079936151714,10.34298760851975,9.605343254531164,0.0008089152583568534,294.0,267.0,6.517006802721088,0.14232209737827714,0.3037542662116041,4792.0,10447.0,9.0,6.0,4.0,93.0,0.0,2.0,,93.0,0.0005743275581506652,0.0003828850387671102,0.0,0.6666666666666666,15.5,0.0,1.0,23.25,93.0,4.0,4.0
272,3592.0,10447.0,5.816815144766147,0.0016198315635661783,0.0023506479066253035,1.4684962154960575,-0.17637079936151714,0.0,3.0,-0.17637079936151714,10.34298760851975,9.605343254531164,0.0008089152583568534,294.0,267.0,6.517006802721088,0.14232209737827714,0.3037542662116041,4792.0,10447.0,9.0,6.0,4.0,93.0,0.0,2.0,,93.0,0.0005743275581506652,0.0003828850387671102,0.0,0.6666666666666666,15.5,0.0,1.0,23.25,93.0,4.0,4.0
273,3599.0,10473.0,5.819949986107252,0.0016175514135928994,0.002360552531986199,1.4787903108909943,-0.17671860160103184,0.0,3.0,-0.17671860160103184,10.34431733608506,9.612929069910159,0.0008077789506686623,294.0,267.0,6.537414965986395,0.14232209737827714,0.3037542662116041,4813.0,10473.0,9.0,6.0,4.0,94.0,0.0,2.0,0.0,94.0,0.0005729017473503294,0.00038193449823355295,0.0,0.6666666666666666,15.666666666666666,0.0,1.0,23.5,94.0,4.0,4.0
274,3599.0,10473.0,5.819949986107252,0.0016175514135928994,0.002360552531986199,1.4787903108909943,-0.17671860160103184,0.0,3.0,-0.17671860160103184,10.34431733608506,9.612929069910159,0.0008077789506686623,294.0,267.0,6.537414965986395,0.14232209737827714,0.3037542662116041,4813.0,10473.0,9.0,6.0,4.0,94.0,0.0,2.0,,94.0,0.0005729017473503294,0.00038193449823355295,0.0,0.6666666666666666,15.666666666666666,0.0,1.0,23.5,94.0,4.0,4.0
275,3606.0,10499.0,5.823072656683306,0.0016152767424919016,0.0023705791326331595,1.489099751777051,-0.17707134181333242,0.0,3.0,-0.17707134181333242,10.345638345152977,9.620488955529101,0.000806645361200858,294.0,267.0,6.557823129251701,0.14232209737827714,0.3037542662116041,4834.0,10499.0,9.0,6.0,4.0,95.0,0.0,2.0,0.0,95.0,0.0005714829983807982,0.00038098866558719876,0.0,0.6666666666666666,15.833333333333334,0.0,1.0,23.75,95.0,4.0,4.0
276,3606.0,10499.0,5.823072656683306,0.0016152767424919016,0.0023705791326331595,1.489099751777051,-0.17707134181333242,0.0,3.0,-0.17707134181333242,10.345638345152977,9.620488955529101,0.000806645361200858,294.0,267.0,6.557823129251701,0.14232209737827714,0.3037542662116041,4834.0,10499.0,9.0,6.0,4.0,95.0,0.0,2.0,,95.0,0.0005714829983807982,0.00038098866558719876,0.0,0.6666666666666666,15.833333333333334,0.0,1.0,23.75,95.0,4.0,4.0
277,3606.0,10499.0,5.823072656683306,0.0016152767424919016,0.0023705791326331595,1.489099751777051,-0.17707134181333242,0.0,3.0,-0.17707134181333242,10.345638345152977,9.620488955529101,0.000806645361200858,294.0,267.0,6.557823129251701,0.14232209737827714,0.3037542662116041,4834.0,10499.0,9.0,6.0,4.0,95.0,0.0,2.0,,95.0,0.0005714829983807982,0.00038098866558719876,0.0,0.6666666666666666,15.833333333333334,0.0,1.0,23.75,95.0,4.0,4.0
278,3606.0,10499.0,5.823072656683306,0.0016152767424919016,0.0023705791326331595,1.489099751777051,-0.17707134181333242,0.0,3.0,-0.17707134181333242,10.345638345152977,9.620488955529101,0.000806645361200858,294.0,267.0,6.557823129251701,0.14232209737827714,0.3037542662116041,4834.0,10499.0,9.0,6.0,4.0,95.0,0.0,2.0,,95.0,0.0005714829983807982,0.00038098866558719876,0.0,0.6666666666666666,15.833333333333334,0.0,1.0,23.75,95.0,4.0,4.0
279,3606.0,10499.0,5.823072656683306,0.0016152767424919016,0.0023705791326331595,1.489099751777051,-0.17707134181333242,0.0,3.0,-0.17707134181333242,10.345638345152977,9.620488955529101,0.000806645361200858,294.0,267.0,6.557823129251701,0.14232209737827714,0.3037542662116041,4834.0,10499.0,9.0,6.0,4.0,95.0,0.0,2.0,,95.0,0.0005714829983807982,0.00038098866558719876,0.0,0.6666666666666666,15.833333333333334,0.0,1.0,23.75,95.0,4.0,4.0
280,3606.0,10499.0,5.823072656683306,0.0016152767424919016,0.0023705791326331595,1.489099751777051,-0.17707134181333242,0.0,3.0,-0.17707134181333242,10.345638345152977,9.620488955529101,0.000806645361200858,294.0,267.0,6.557823129251701,0.14232209737827714,0.3037542662116041,4834.0,10499.0,9.0,6.0,4.0,95.0,0.0,2.0,,95.0,0.0005714829983807982,0.00038098866558719876,0.0,0.6666666666666666,15.833333333333334,0.0,1.0,23.75,95.0,4.0,4.0
281,3606.0,10499.0,5.823072656683306,0.0016152767424919016,0.0023705791326331595,1.489099751777051,-0.17707134181333242,0.0,3.0,-0.17707134181333242,10.345638345152977,9.620488955529101,0.000806645361200858,294.0,267.0,6.557823129251701,0.14232209737827714,0.3037542662116041,4834.0,10499.0,9.0,6.0,4.0,95.0,0.0,2.0,,95.0,0.0005714829983807982,0.00038098866558719876,0.0,0.6666666666666666,15.833333333333334,0.0,1.0,23.75,95.0,4.0,4.0
282,3606.0,10499.0,5.823072656683306,0.0016152767424919016,0.0023705791326331595,1.489099751777051,-0.17707134181333242,0.0,3.0,-0.17707134181333242,10.345638345152977,9.620488955529101,0.000806645361200858,294.0,267.0,6.557823129251701,0.14232209737827714,0.3037542662116041,4834.0,10499.0,9.0,6.0,4.0,95.0,0.0,2.0,,95.0,0.0005714829983807982,0.00038098866558719876,0.0,0.6666666666666666,15.833333333333334,0.0,1.0,23.75,95.0,4.0,4.0
283,3613.0,10525.0,5.826183227234985,0.0016130075379941818,0.0023805512632295786,1.4995350057295174,-0.17742750074549654,0.0,3.0,-0.17742750074549654,10.346944958349896,9.62799956124691,0.0008055144839777692,294.0,267.0,6.578231292517007,0.14232209737827714,0.3037542662116041,4855.0,10525.0,9.0,6.0,4.0,96.0,0.0,2.0,0.0,96.0,0.0005700712589073634,0.00038004750593824226,0.0,0.6666666666666666,16.0,0.0,1.0,24.0,96.0,4.0,4.0
284,3613.0,10525.0,5.826183227234985,0.0016130075379941818,0.0023805512632295786,1.4995350057295174,-0.17742750074549654,0.0,3.0,-0.17742750074549654,10.346944958349896,9.62799956124691,0.0008055144839777692,294.0,267.0,6.578231292517007,0.14232209737827714,0.3037542662116041,4855.0,10525.0,9.0,6.0,4.0,96.0,0.0,2.0,,96.0,0.0005700712589073634,0.00038004750593824226,0.0,0.6666666666666666,16.0,0.0,1.0,24.0,96.0,4.0,4.0
285,3620.0,10551.0,5.829281767955801,0.0016107437877744685,0.0023906434900184226,1.5099850084799191,-0.17778834616845487,0.0,3.0,-0.17778834616845487,10.348243181574336,9.635484123525657,0.0008043863129941089,294.0,267.0,6.598639455782313,0.14232209737827714,0.3037542662116041,4876.0,10551.0,9.0,6.0,4.0,97.0,0.0,2.0,0.0,97.0,0.0005686664771111743,0.0003791109847407829,0.0,0.6666666666666666,16.166666666666668,0.0,1.0,24.25,97.0,4.0,4.0
286,3620.0,10551.0,5.829281767955801,0.0016107437877744685,0.0023906434900184226,1.5099850084799191,-0.17778834616845487,0.0,3.0,-0.17778834616845487,10.348243181574336,9.635484123525657,0.0008043863129941089,294.0,267.0,6.598639455782313,0.14232209737827714,0.3037542662116041,4876.0,10551.0,9.0,6.0,4.0,97.0,0.0,2.0,,97.0,0.0005686664771111743,0.0003791109847407829,0.0,0.6666666666666666,16.166666666666668,0.0,1.0,24.25,97.0,4.0,4.0
287,3620.0,10551.0,5.829281767955801,0.0016107437877744685,0.0023906434900184226,1.5099850084799191,-0.17778834616845487,0.0,3.0,-0.17778834616845487,10.348243181574336,9.635484123525657,0.0008043863129941089,294.0,267.0,6.598639455782313,0.14232209737827714,0.3037542662116041,4876.0,10551.0,9.0,6.0,4.0,97.0,0.0,2.0,,97.0,0.0005686664771111743,0.0003791109847407829,0.0,0.6666666666666666,16.166666666666668,0.0,1.0,24.25,97.0,4.0,4.0
288,3620.0,10551.0,5.829281767955801,0.0016107437877744685,0.0023906434900184226,1.5099850084799191,-0.17778834616845487,0.0,3.0,-0.17778834616845487,10.348243181574336,9.635484123525657,0.0008043863129941089,294.0,267.0,6.598639455782313,0.14232209737827714,0.3037542662116041,4876.0,10551.0,9.0,6.0,4.0,97.0,0.0,2.0,,97.0,0.0005686664771111743,0.0003791109847407829,0.0,0.6666666666666666,16.166666666666668,0.0,1.0,24.25,97.0,4.0,4.0
289,3620.0,10551.0,5.829281767955801,0.0016107437877744685,0.0023906434900184226,1.5099850084799191,-0.17778834616845487,0.0,3.0,-0.17778834616845487,10.348243181574336,9.635484123525657,0.0008043863129941089,294.0,267.0,6.598639455782313,0.14232209737827714,0.3037542662116041,4876.0,10551.0,9.0,6.0,4.0,97.0,0.0,2.0,,97.0,0.0005686664771111743,0.0003791109847407829,0.0,0.6666666666666666,16.166666666666668,0.0,1.0,24.25,97.0,4.0,4.0
