Turn,GROUP A - Total nodes,GROUP A - Total edges,GROUP A - Average degree,GROUP A - Average degree centrality,GROUP A - Average closeness,GROUP A - Average degree connectivity,GROUP A - Average assortativity,GROUP A - Average node connectivity,GROUP A - Number of components,GROUP A - Number of strong components,GROUP A - Centrality entropy,GROUP A - Closeness entropy,GROUP A - Sparseness,GROUP B - Total classes,GROUP B - Total properties,GROUP B - Average population,GROUP B - Attribute richness,GROUP B - Relationship richness,GROUP B - Total axioms,GROUP C - Total triples,GROUP C - Total world instances,GROUP C - Total claims,GROUP C - Total perspectives,GROUP C - Total mentions,GROUP C - Total conflicts,GROUP C - Total sources,GROUP C - Total interactions,GROUP C - Total utterances,GROUP C - Ratio claim to triples,GROUP C - Ratio perspectives to triples,GROUP C - Ratio conflicts to triples,GROUP C - Ratio perspectives to claims,GROUP C - Ratio mentions to claims,GROUP C - Ratio conflicts to claims,GROUP C - Average perspectives per claim,GROUP C - Average mentions per claim,GROUP C - Average turns per interaction,GROUP C - Average claims per source,GROUP C - Average perspectives per source
175,2876.0,7917.0,5.5055632823365785,0.0019149785329866365,0.0017140617469556258,0.8565156812226347,-0.11724473967873476,0.0,3.0,-0.11724473967873476,10.051382722877552,8.552609193895329,0.0009559473538622836,293.0,274.0,4.4573378839590445,0.1386861313868613,0.309255079006772,2773.0,7917.0,0.0,0.0,0.0,0.0,0.0,0.0,0.0,0.0,0.0,0.0,0.0,0.0,0.0,0.0,0.0,0.0,0.0,0.0,0.0
177,2876.0,7917.0,5.5055632823365785,0.0019149785329866365,0.0017140617469556258,0.8565156812226347,-0.11724473967873476,0.0,3.0,-0.11724473967873476,10.051382722877552,8.552609193895329,0.0009559473538622836,293.0,274.0,4.4573378839590445,0.1386861313868613,0.309255079006772,2773.0,7917.0,0.0,0.0,0.0,0.0,0.0,0.0,,0.0,0.0,0.0,0.0,0.0,0.0,0.0,0.0,0.0,0.0,0.0,0.0
179,2876.0,7917.0,5.5055632823365785,0.0019149785329866365,0.0017140617469556258,0.8565156812226347,-0.11724473967873476,0.0,3.0,-0.11724473967873476,10.051382722877552,8.552609193895329,0.0009559473538622836,293.0,274.0,4.4573378839590445,0.1386861313868613,0.309255079006772,2773.0,7917.0,0.0,0.0,0.0,0.0,0.0,0.0,,0.0,0.0,0.0,0.0,0.0,0.0,0.0,0.0,0.0,0.0,0.0,0.0
181,2876.0,7917.0,5.5055632823365785,0.0019149785329866365,0.0017140617469556258,0.8565156812226347,-0.11724473967873476,0.0,3.0,-0.11724473967873476,10.051382722877552,8.552609193895329,0.0009559473538622836,293.0,274.0,4.4573378839590445,0.1386861313868613,0.309255079006772,2773.0,7917.0,0.0,0.0,0.0,0.0,0.0,0.0,,0.0,0.0,0.0,0.0,0.0,0.0,0.0,0.0,0.0,0.0,0.0,0.0
182,2876.0,7917.0,5.5055632823365785,0.0019149785329866365,0.0017140617469556258,0.8565156812226347,-0.11724473967873476,0.0,3.0,-0.11724473967873476,10.051382722877552,8.552609193895329,0.0009559473538622836,293.0,274.0,4.4573378839590445,0.1386861313868613,0.309255079006772,2773.0,7917.0,0.0,0.0,0.0,0.0,0.0,0.0,,0.0,0.0,0.0,0.0,0.0,0.0,0.0,0.0,0.0,0.0,0.0,0.0
184,2876.0,7917.0,5.5055632823365785,0.0019149785329866365,0.0017140617469556258,0.8565156812226347,-0.11724473967873476,0.0,3.0,-0.11724473967873476,10.051382722877552,8.552609193895329,0.0009559473538622836,293.0,274.0,4.4573378839590445,0.1386861313868613,0.309255079006772,2773.0,7917.0,0.0,0.0,0.0,0.0,0.0,0.0,,0.0,0.0,0.0,0.0,0.0,0.0,0.0,0.0,0.0,0.0,0.0,0.0
83,2876.0,7917.0,5.5055632823365785,0.0019149785329866365,0.0017140617469556258,0.8565156812226347,-0.11724473967873476,0.0,3.0,-0.11724473967873476,10.051382722877552,8.552609193895329,0.0009559473538622836,293.0,274.0,4.4573378839590445,0.1386861313868613,0.309255079006772,2773.0,7917.0,0.0,0.0,0.0,0.0,0.0,0.0,,0.0,0.0,0.0,0.0,0.0,0.0,0.0,0.0,0.0,0.0,0.0,0.0
85,2876.0,7917.0,5.5055632823365785,0.0019149785329866365,0.0017140617469556258,0.8565156812226347,-0.11724473967873476,0.0,3.0,-0.11724473967873476,10.051382722877552,8.552609193895329,0.0009559473538622836,293.0,274.0,4.4573378839590445,0.1386861313868613,0.309255079006772,2773.0,7917.0,0.0,0.0,0.0,0.0,0.0,0.0,,0.0,0.0,0.0,0.0,0.0,0.0,0.0,0.0,0.0,0.0,0.0,0.0
87,2876.0,7917.0,5.5055632823365785,0.0019149785329866365,0.0017140617469556258,0.8565156812226347,-0.11724473967873476,0.0,3.0,-0.11724473967873476,10.051382722877552,8.552609193895329,0.0009559473538622836,293.0,274.0,4.4573378839590445,0.1386861313868613,0.309255079006772,2773.0,7917.0,0.0,0.0,0.0,0.0,0.0,0.0,,0.0,0.0,0.0,0.0,0.0,0.0,0.0,0.0,0.0,0.0,0.0,0.0
89,2876.0,7917.0,5.5055632823365785,0.0019149785329866365,0.0017140617469556258,0.8565156812226347,-0.11724473967873476,0.0,3.0,-0.11724473967873476,10.051382722877552,8.552609193895329,0.0009559473538622836,293.0,274.0,4.4573378839590445,0.1386861313868613,0.309255079006772,2773.0,7917.0,0.0,0.0,0.0,0.0,0.0,0.0,,0.0,0.0,0.0,0.0,0.0,0.0,0.0,0.0,0.0,0.0,0.0,0.0
251,2876.0,7917.0,5.5055632823365785,0.0019149785329866365,0.0017140617469556258,0.8565156812226347,-0.11724473967873476,0.0,3.0,-0.11724473967873476,10.051382722877552,8.552609193895329,0.0009559473538622836,293.0,274.0,4.4573378839590445,0.1386861313868613,0.309255079006772,2773.0,7917.0,0.0,0.0,0.0,0.0,0.0,0.0,,0.0,0.0,0.0,0.0,0.0,0.0,0.0,0.0,0.0,0.0,0.0,0.0
253,2876.0,7917.0,5.5055632823365785,0.0019149785329866365,0.0017140617469556258,0.8565156812226347,-0.11724473967873476,0.0,3.0,-0.11724473967873476,10.051382722877552,8.552609193895329,0.0009559473538622836,293.0,274.0,4.4573378839590445,0.1386861313868613,0.309255079006772,2773.0,7917.0,0.0,0.0,0.0,0.0,0.0,0.0,,0.0,0.0,0.0,0.0,0.0,0.0,0.0,0.0,0.0,0.0,0.0,0.0
254,2876.0,7917.0,5.5055632823365785,0.0019149785329866365,0.0017140617469556258,0.8565156812226347,-0.11724473967873476,0.0,3.0,-0.11724473967873476,10.051382722877552,8.552609193895329,0.0009559473538622836,293.0,274.0,4.4573378839590445,0.1386861313868613,0.309255079006772,2773.0,7917.0,0.0,0.0,0.0,0.0,0.0,0.0,,0.0,0.0,0.0,0.0,0.0,0.0,0.0,0.0,0.0,0.0,0.0,0.0
665,2876.0,7917.0,5.5055632823365785,0.0019149785329866365,0.0017140617469556258,0.8565156812226347,-0.11724473967873476,0.0,3.0,-0.11724473967873476,10.051382722877552,8.552609193895329,0.0009559473538622836,293.0,274.0,4.4573378839590445,0.1386861313868613,0.309255079006772,2773.0,7917.0,0.0,0.0,0.0,0.0,0.0,0.0,,0.0,0.0,0.0,0.0,0.0,0.0,0.0,0.0,0.0,0.0,0.0,0.0
667,2876.0,7917.0,5.5055632823365785,0.0019149785329866365,0.0017140617469556258,0.8565156812226347,-0.11724473967873476,0.0,3.0,-0.11724473967873476,10.051382722877552,8.552609193895329,0.0009559473538622836,293.0,274.0,4.4573378839590445,0.1386861313868613,0.309255079006772,2773.0,7917.0,0.0,0.0,0.0,0.0,0.0,0.0,,0.0,0.0,0.0,0.0,0.0,0.0,0.0,0.0,0.0,0.0,0.0,0.0
669,2876.0,7917.0,5.5055632823365785,0.0019149785329866365,0.0017140617469556258,0.8565156812226347,-0.11724473967873476,0.0,3.0,-0.11724473967873476,10.051382722877552,8.552609193895329,0.0009559473538622836,293.0,274.0,4.4573378839590445,0.1386861313868613,0.309255079006772,2773.0,7917.0,0.0,0.0,0.0,0.0,0.0,0.0,,0.0,0.0,0.0,0.0,0.0,0.0,0.0,0.0,0.0,0.0,0.0,0.0
671,2876.0,7917.0,5.5055632823365785,0.0019149785329866365,0.0017140617469556258,0.8565156812226347,-0.11724473967873476,0.0,3.0,-0.11724473967873476,10.051382722877552,8.552609193895329,0.0009559473538622836,293.0,274.0,4.4573378839590445,0.1386861313868613,0.309255079006772,2773.0,7917.0,0.0,0.0,0.0,0.0,0.0,0.0,,0.0,0.0,0.0,0.0,0.0,0.0,0.0,0.0,0.0,0.0,0.0,0.0
186,2876.0,7917.0,5.5055632823365785,0.0019149785329866365,0.0017140617469556258,0.8565156812226347,-0.11724473967873476,0.0,3.0,-0.11724473967873476,10.051382722877552,8.552609193895329,0.0009559473538622836,293.0,274.0,4.4573378839590445,0.1386861313868613,0.309255079006772,2773.0,7917.0,0.0,0.0,0.0,0.0,0.0,0.0,,0.0,0.0,0.0,0.0,0.0,0.0,0.0,0.0,0.0,0.0,0.0,0.0
188,2876.0,7917.0,5.5055632823365785,0.0019149785329866365,0.0017140617469556258,0.8565156812226347,-0.11724473967873476,0.0,3.0,-0.11724473967873476,10.051382722877552,8.552609193895329,0.0009559473538622836,293.0,274.0,4.4573378839590445,0.1386861313868613,0.309255079006772,2773.0,7917.0,0.0,0.0,0.0,0.0,0.0,0.0,,0.0,0.0,0.0,0.0,0.0,0.0,0.0,0.0,0.0,0.0,0.0,0.0
190,2876.0,7917.0,5.5055632823365785,0.0019149785329866365,0.0017140617469556258,0.8565156812226347,-0.11724473967873476,0.0,3.0,-0.11724473967873476,10.051382722877552,8.552609193895329,0.0009559473538622836,293.0,274.0,4.4573378839590445,0.1386861313868613,0.309255079006772,2773.0,7917.0,0.0,0.0,0.0,0.0,0.0,0.0,,0.0,0.0,0.0,0.0,0.0,0.0,0.0,0.0,0.0,0.0,0.0,0.0
192,2876.0,7917.0,5.5055632823365785,0.0019149785329866365,0.0017140617469556258,0.8565156812226347,-0.11724473967873476,0.0,3.0,-0.11724473967873476,10.051382722877552,8.552609193895329,0.0009559473538622836,293.0,274.0,4.4573378839590445,0.1386861313868613,0.309255079006772,2773.0,7917.0,0.0,0.0,0.0,0.0,0.0,0.0,,0.0,0.0,0.0,0.0,0.0,0.0,0.0,0.0,0.0,0.0,0.0,0.0
194,2876.0,7917.0,5.5055632823365785,0.0019149785329866365,0.0017140617469556258,0.8565156812226347,-0.11724473967873476,0.0,3.0,-0.11724473967873476,10.051382722877552,8.552609193895329,0.0009559473538622836,293.0,274.0,4.4573378839590445,0.1386861313868613,0.309255079006772,2773.0,7917.0,0.0,0.0,0.0,0.0,0.0,0.0,,0.0,0.0,0.0,0.0,0.0,0.0,0.0,0.0,0.0,0.0,0.0,0.0
196,2876.0,7917.0,5.5055632823365785,0.0019149785329866365,0.0017140617469556258,0.8565156812226347,-0.11724473967873476,0.0,3.0,-0.11724473967873476,10.051382722877552,8.552609193895329,0.0009559473538622836,293.0,274.0,4.4573378839590445,0.1386861313868613,0.309255079006772,2773.0,7917.0,0.0,0.0,0.0,0.0,0.0,0.0,,0.0,0.0,0.0,0.0,0.0,0.0,0.0,0.0,0.0,0.0,0.0,0.0
198,2876.0,7917.0,5.5055632823365785,0.0019149785329866365,0.0017140617469556258,0.8565156812226347,-0.11724473967873476,0.0,3.0,-0.11724473967873476,10.051382722877552,8.552609193895329,0.0009559473538622836,293.0,274.0,4.4573378839590445,0.1386861313868613,0.309255079006772,2773.0,7917.0,0.0,0.0,0.0,0.0,0.0,0.0,,0.0,0.0,0.0,0.0,0.0,0.0,0.0,0.0,0.0,0.0,0.0,0.0
200,2876.0,7917.0,5.5055632823365785,0.0019149785329866365,0.0017140617469556258,0.8565156812226347,-0.11724473967873476,0.0,3.0,-0.11724473967873476,10.051382722877552,8.552609193895329,0.0009559473538622836,293.0,274.0,4.4573378839590445,0.1386861313868613,0.309255079006772,2773.0,7917.0,0.0,0.0,0.0,0.0,0.0,0.0,,0.0,0.0,0.0,0.0,0.0,0.0,0.0,0.0,0.0,0.0,0.0,0.0
202,2876.0,7917.0,5.5055632823365785,0.0019149785329866365,0.0017140617469556258,0.8565156812226347,-0.11724473967873476,0.0,3.0,-0.11724473967873476,10.051382722877552,8.552609193895329,0.0009559473538622836,293.0,274.0,4.4573378839590445,0.1386861313868613,0.309255079006772,2773.0,7917.0,0.0,0.0,0.0,0.0,0.0,0.0,,0.0,0.0,0.0,0.0,0.0,0.0,0.0,0.0,0.0,0.0,0.0,0.0
204,2876.0,7917.0,5.5055632823365785,0.0019149785329866365,0.0017140617469556258,0.8565156812226347,-0.11724473967873476,0.0,3.0,-0.11724473967873476,10.051382722877552,8.552609193895329,0.0009559473538622836,293.0,274.0,4.4573378839590445,0.1386861313868613,0.309255079006772,2773.0,7917.0,0.0,0.0,0.0,0.0,0.0,0.0,,0.0,0.0,0.0,0.0,0.0,0.0,0.0,0.0,0.0,0.0,0.0,0.0
206,2876.0,7917.0,5.5055632823365785,0.0019149785329866365,0.0017140617469556258,0.8565156812226347,-0.11724473967873476,0.0,3.0,-0.11724473967873476,10.051382722877552,8.552609193895329,0.0009559473538622836,293.0,274.0,4.4573378839590445,0.1386861313868613,0.309255079006772,2773.0,7917.0,0.0,0.0,0.0,0.0,0.0,0.0,,0.0,0.0,0.0,0.0,0.0,0.0,0.0,0.0,0.0,0.0,0.0,0.0
594,2876.0,7917.0,5.5055632823365785,0.0019149785329866365,0.0017140617469556258,0.8565156812226347,-0.11724473967873476,0.0,3.0,-0.11724473967873476,10.051382722877552,8.552609193895329,0.0009559473538622836,293.0,274.0,4.4573378839590445,0.1386861313868613,0.309255079006772,2773.0,7917.0,0.0,0.0,0.0,0.0,0.0,0.0,,0.0,0.0,0.0,0.0,0.0,0.0,0.0,0.0,0.0,0.0,0.0,0.0
596,2876.0,7917.0,5.5055632823365785,0.0019149785329866365,0.0017140617469556258,0.8565156812226347,-0.11724473967873476,0.0,3.0,-0.11724473967873476,10.051382722877552,8.552609193895329,0.0009559473538622836,293.0,274.0,4.4573378839590445,0.1386861313868613,0.309255079006772,2773.0,7917.0,0.0,0.0,0.0,0.0,0.0,0.0,,0.0,0.0,0.0,0.0,0.0,0.0,0.0,0.0,0.0,0.0,0.0,0.0
598,2876.0,7917.0,5.5055632823365785,0.0019149785329866365,0.0017140617469556258,0.8565156812226347,-0.11724473967873476,0.0,3.0,-0.11724473967873476,10.051382722877552,8.552609193895329,0.0009559473538622836,293.0,274.0,4.4573378839590445,0.1386861313868613,0.309255079006772,2773.0,7917.0,0.0,0.0,0.0,0.0,0.0,0.0,,0.0,0.0,0.0,0.0,0.0,0.0,0.0,0.0,0.0,0.0,0.0,0.0
600,2876.0,7917.0,5.5055632823365785,0.0019149785329866365,0.0017140617469556258,0.8565156812226347,-0.11724473967873476,0.0,3.0,-0.11724473967873476,10.051382722877552,8.552609193895329,0.0009559473538622836,293.0,274.0,4.4573378839590445,0.1386861313868613,0.309255079006772,2773.0,7917.0,0.0,0.0,0.0,0.0,0.0,0.0,,0.0,0.0,0.0,0.0,0.0,0.0,0.0,0.0,0.0,0.0,0.0,0.0
602,2876.0,7917.0,5.5055632823365785,0.0019149785329866365,0.0017140617469556258,0.8565156812226347,-0.11724473967873476,0.0,3.0,-0.11724473967873476,10.051382722877552,8.552609193895329,0.0009559473538622836,293.0,274.0,4.4573378839590445,0.1386861313868613,0.309255079006772,2773.0,7917.0,0.0,0.0,0.0,0.0,0.0,0.0,,0.0,0.0,0.0,0.0,0.0,0.0,0.0,0.0,0.0,0.0,0.0,0.0
940,2876.0,7917.0,5.5055632823365785,0.0019149785329866365,0.0017140617469556258,0.8565156812226347,-0.11724473967873476,0.0,3.0,-0.11724473967873476,10.051382722877552,8.552609193895329,0.0009559473538622836,293.0,274.0,4.4573378839590445,0.1386861313868613,0.309255079006772,2773.0,7917.0,0.0,0.0,0.0,0.0,0.0,0.0,,0.0,0.0,0.0,0.0,0.0,0.0,0.0,0.0,0.0,0.0,0.0,0.0
942,2876.0,7917.0,5.5055632823365785,0.0019149785329866365,0.0017140617469556258,0.8565156812226347,-0.11724473967873476,0.0,3.0,-0.11724473967873476,10.051382722877552,8.552609193895329,0.0009559473538622836,293.0,274.0,4.4573378839590445,0.1386861313868613,0.309255079006772,2773.0,7917.0,0.0,0.0,0.0,0.0,0.0,0.0,,0.0,0.0,0.0,0.0,0.0,0.0,0.0,0.0,0.0,0.0,0.0,0.0
944,2876.0,7917.0,5.5055632823365785,0.0019149785329866365,0.0017140617469556258,0.8565156812226347,-0.11724473967873476,0.0,3.0,-0.11724473967873476,10.051382722877552,8.552609193895329,0.0009559473538622836,293.0,274.0,4.4573378839590445,0.1386861313868613,0.309255079006772,2773.0,7917.0,0.0,0.0,0.0,0.0,0.0,0.0,,0.0,0.0,0.0,0.0,0.0,0.0,0.0,0.0,0.0,0.0,0.0,0.0
948,2876.0,7917.0,5.5055632823365785,0.0019149785329866365,0.0017140617469556258,0.8565156812226347,-0.11724473967873476,0.0,3.0,-0.11724473967873476,10.051382722877552,8.552609193895329,0.0009559473538622836,293.0,274.0,4.4573378839590445,0.1386861313868613,0.309255079006772,2773.0,7917.0,0.0,0.0,0.0,0.0,0.0,0.0,,0.0,0.0,0.0,0.0,0.0,0.0,0.0,0.0,0.0,0.0,0.0,0.0
949,2876.0,7917.0,5.5055632823365785,0.0019149785329866365,0.0017140617469556258,0.8565156812226347,-0.11724473967873476,0.0,3.0,-0.11724473967873476,10.051382722877552,8.552609193895329,0.0009559473538622836,293.0,274.0,4.4573378839590445,0.1386861313868613,0.309255079006772,2773.0,7917.0,0.0,0.0,0.0,0.0,0.0,0.0,,0.0,0.0,0.0,0.0,0.0,0.0,0.0,0.0,0.0,0.0,0.0,0.0
950,2876.0,7917.0,5.5055632823365785,0.0019149785329866365,0.0017140617469556258,0.8565156812226347,-0.11724473967873476,0.0,3.0,-0.11724473967873476,10.051382722877552,8.552609193895329,0.0009559473538622836,293.0,274.0,4.4573378839590445,0.1386861313868613,0.309255079006772,2773.0,7917.0,0.0,0.0,0.0,0.0,0.0,0.0,,0.0,0.0,0.0,0.0,0.0,0.0,0.0,0.0,0.0,0.0,0.0,0.0
952,2876.0,7917.0,5.5055632823365785,0.0019149785329866365,0.0017140617469556258,0.8565156812226347,-0.11724473967873476,0.0,3.0,-0.11724473967873476,10.051382722877552,8.552609193895329,0.0009559473538622836,293.0,274.0,4.4573378839590445,0.1386861313868613,0.309255079006772,2773.0,7917.0,0.0,0.0,0.0,0.0,0.0,0.0,,0.0,0.0,0.0,0.0,0.0,0.0,0.0,0.0,0.0,0.0,0.0,0.0
953,2876.0,7917.0,5.5055632823365785,0.0019149785329866365,0.0017140617469556258,0.8565156812226347,-0.11724473967873476,0.0,3.0,-0.11724473967873476,10.051382722877552,8.552609193895329,0.0009559473538622836,293.0,274.0,4.4573378839590445,0.1386861313868613,0.309255079006772,2773.0,7917.0,0.0,0.0,0.0,0.0,0.0,0.0,,0.0,0.0,0.0,0.0,0.0,0.0,0.0,0.0,0.0,0.0,0.0,0.0
954,2876.0,7917.0,5.5055632823365785,0.0019149785329866365,0.0017140617469556258,0.8565156812226347,-0.11724473967873476,0.0,3.0,-0.11724473967873476,10.051382722877552,8.552609193895329,0.0009559473538622836,293.0,274.0,4.4573378839590445,0.1386861313868613,0.309255079006772,2773.0,7917.0,0.0,0.0,0.0,0.0,0.0,0.0,,0.0,0.0,0.0,0.0,0.0,0.0,0.0,0.0,0.0,0.0,0.0,0.0
955,2876.0,7917.0,5.5055632823365785,0.0019149785329866365,0.0017140617469556258,0.8565156812226347,-0.11724473967873476,0.0,3.0,-0.11724473967873476,10.051382722877552,8.552609193895329,0.0009559473538622836,293.0,274.0,4.4573378839590445,0.1386861313868613,0.309255079006772,2773.0,7917.0,0.0,0.0,0.0,0.0,0.0,0.0,,0.0,0.0,0.0,0.0,0.0,0.0,0.0,0.0,0.0,0.0,0.0,0.0
957,2876.0,7917.0,5.5055632823365785,0.0019149785329866365,0.0017140617469556258,0.8565156812226347,-0.11724473967873476,0.0,3.0,-0.11724473967873476,10.051382722877552,8.552609193895329,0.0009559473538622836,293.0,274.0,4.4573378839590445,0.1386861313868613,0.309255079006772,2773.0,7917.0,0.0,0.0,0.0,0.0,0.0,0.0,,0.0,0.0,0.0,0.0,0.0,0.0,0.0,0.0,0.0,0.0,0.0,0.0
959,2876.0,7917.0,5.5055632823365785,0.0019149785329866365,0.0017140617469556258,0.8565156812226347,-0.11724473967873476,0.0,3.0,-0.11724473967873476,10.051382722877552,8.552609193895329,0.0009559473538622836,293.0,274.0,4.4573378839590445,0.1386861313868613,0.309255079006772,2773.0,7917.0,0.0,0.0,0.0,0.0,0.0,0.0,,0.0,0.0,0.0,0.0,0.0,0.0,0.0,0.0,0.0,0.0,0.0,0.0
623,2876.0,7917.0,5.5055632823365785,0.0019149785329866365,0.0017140617469556258,0.8565156812226347,-0.11724473967873476,0.0,3.0,-0.11724473967873476,10.051382722877552,8.552609193895329,0.0009559473538622836,293.0,274.0,4.4573378839590445,0.1386861313868613,0.309255079006772,2773.0,7917.0,0.0,0.0,0.0,0.0,0.0,0.0,,0.0,0.0,0.0,0.0,0.0,0.0,0.0,0.0,0.0,0.0,0.0,0.0
625,2876.0,7917.0,5.5055632823365785,0.0019149785329866365,0.0017140617469556258,0.8565156812226347,-0.11724473967873476,0.0,3.0,-0.11724473967873476,10.051382722877552,8.552609193895329,0.0009559473538622836,293.0,274.0,4.4573378839590445,0.1386861313868613,0.309255079006772,2773.0,7917.0,0.0,0.0,0.0,0.0,0.0,0.0,,0.0,0.0,0.0,0.0,0.0,0.0,0.0,0.0,0.0,0.0,0.0,0.0
627,2876.0,7917.0,5.5055632823365785,0.0019149785329866365,0.0017140617469556258,0.8565156812226347,-0.11724473967873476,0.0,3.0,-0.11724473967873476,10.051382722877552,8.552609193895329,0.0009559473538622836,293.0,274.0,4.4573378839590445,0.1386861313868613,0.309255079006772,2773.0,7917.0,0.0,0.0,0.0,0.0,0.0,0.0,,0.0,0.0,0.0,0.0,0.0,0.0,0.0,0.0,0.0,0.0,0.0,0.0
579,2876.0,7917.0,5.5055632823365785,0.0019149785329866365,0.0017140617469556258,0.8565156812226347,-0.11724473967873476,0.0,3.0,-0.11724473967873476,10.051382722877552,8.552609193895329,0.0009559473538622836,293.0,274.0,4.4573378839590445,0.1386861313868613,0.309255079006772,2773.0,7917.0,0.0,0.0,0.0,0.0,0.0,0.0,,0.0,0.0,0.0,0.0,0.0,0.0,0.0,0.0,0.0,0.0,0.0,0.0
581,2876.0,7917.0,5.5055632823365785,0.0019149785329866365,0.0017140617469556258,0.8565156812226347,-0.11724473967873476,0.0,3.0,-0.11724473967873476,10.051382722877552,8.552609193895329,0.0009559473538622836,293.0,274.0,4.4573378839590445,0.1386861313868613,0.309255079006772,2773.0,7917.0,0.0,0.0,0.0,0.0,0.0,0.0,,0.0,0.0,0.0,0.0,0.0,0.0,0.0,0.0,0.0,0.0,0.0,0.0
582,2876.0,7917.0,5.5055632823365785,0.0019149785329866365,0.0017140617469556258,0.8565156812226347,-0.11724473967873476,0.0,3.0,-0.11724473967873476,10.051382722877552,8.552609193895329,0.0009559473538622836,293.0,274.0,4.4573378839590445,0.1386861313868613,0.309255079006772,2773.0,7917.0,0.0,0.0,0.0,0.0,0.0,0.0,,0.0,0.0,0.0,0.0,0.0,0.0,0.0,0.0,0.0,0.0,0.0,0.0
583,2876.0,7917.0,5.5055632823365785,0.0019149785329866365,0.0017140617469556258,0.8565156812226347,-0.11724473967873476,0.0,3.0,-0.11724473967873476,10.051382722877552,8.552609193895329,0.0009559473538622836,293.0,274.0,4.4573378839590445,0.1386861313868613,0.309255079006772,2773.0,7917.0,0.0,0.0,0.0,0.0,0.0,0.0,,0.0,0.0,0.0,0.0,0.0,0.0,0.0,0.0,0.0,0.0,0.0,0.0
847,2876.0,7917.0,5.5055632823365785,0.0019149785329866365,0.0017140617469556258,0.8565156812226347,-0.11724473967873476,0.0,3.0,-0.11724473967873476,10.051382722877552,8.552609193895329,0.0009559473538622836,293.0,274.0,4.4573378839590445,0.1386861313868613,0.309255079006772,2773.0,7917.0,0.0,0.0,0.0,0.0,0.0,0.0,,0.0,0.0,0.0,0.0,0.0,0.0,0.0,0.0,0.0,0.0,0.0,0.0
849,2876.0,7917.0,5.5055632823365785,0.0019149785329866365,0.0017140617469556258,0.8565156812226347,-0.11724473967873476,0.0,3.0,-0.11724473967873476,10.051382722877552,8.552609193895329,0.0009559473538622836,293.0,274.0,4.4573378839590445,0.1386861313868613,0.309255079006772,2773.0,7917.0,0.0,0.0,0.0,0.0,0.0,0.0,,0.0,0.0,0.0,0.0,0.0,0.0,0.0,0.0,0.0,0.0,0.0,0.0
66,2876.0,7917.0,5.5055632823365785,0.0019149785329866365,0.0017140617469556258,0.8565156812226347,-0.11724473967873476,0.0,3.0,-0.11724473967873476,10.051382722877552,8.552609193895329,0.0009559473538622836,293.0,274.0,4.4573378839590445,0.1386861313868613,0.309255079006772,2773.0,7917.0,0.0,0.0,0.0,0.0,0.0,0.0,,0.0,0.0,0.0,0.0,0.0,0.0,0.0,0.0,0.0,0.0,0.0,0.0
75,2876.0,7917.0,5.5055632823365785,0.0019149785329866365,0.0017140617469556258,0.8565156812226347,-0.11724473967873476,0.0,3.0,-0.11724473967873476,10.051382722877552,8.552609193895329,0.0009559473538622836,293.0,274.0,4.4573378839590445,0.1386861313868613,0.309255079006772,2773.0,7917.0,0.0,0.0,0.0,0.0,0.0,0.0,,0.0,0.0,0.0,0.0,0.0,0.0,0.0,0.0,0.0,0.0,0.0,0.0
76,2876.0,7917.0,5.5055632823365785,0.0019149785329866365,0.0017140617469556258,0.8565156812226347,-0.11724473967873476,0.0,3.0,-0.11724473967873476,10.051382722877552,8.552609193895329,0.0009559473538622836,293.0,274.0,4.4573378839590445,0.1386861313868613,0.309255079006772,2773.0,7917.0,0.0,0.0,0.0,0.0,0.0,0.0,,0.0,0.0,0.0,0.0,0.0,0.0,0.0,0.0,0.0,0.0,0.0,0.0
78,2876.0,7917.0,5.5055632823365785,0.0019149785329866365,0.0017140617469556258,0.8565156812226347,-0.11724473967873476,0.0,3.0,-0.11724473967873476,10.051382722877552,8.552609193895329,0.0009559473538622836,293.0,274.0,4.4573378839590445,0.1386861313868613,0.309255079006772,2773.0,7917.0,0.0,0.0,0.0,0.0,0.0,0.0,,0.0,0.0,0.0,0.0,0.0,0.0,0.0,0.0,0.0,0.0,0.0,0.0
82,2876.0,7917.0,5.5055632823365785,0.0019149785329866365,0.0017140617469556258,0.8565156812226347,-0.11724473967873476,0.0,3.0,-0.11724473967873476,10.051382722877552,8.552609193895329,0.0009559473538622836,293.0,274.0,4.4573378839590445,0.1386861313868613,0.309255079006772,2773.0,7917.0,0.0,0.0,0.0,0.0,0.0,0.0,,0.0,0.0,0.0,0.0,0.0,0.0,0.0,0.0,0.0,0.0,0.0,0.0
158,2876.0,7917.0,5.5055632823365785,0.0019149785329866365,0.0017140617469556258,0.8565156812226347,-0.11724473967873476,0.0,3.0,-0.11724473967873476,10.051382722877552,8.552609193895329,0.0009559473538622836,293.0,274.0,4.4573378839590445,0.1386861313868613,0.309255079006772,2773.0,7917.0,0.0,0.0,0.0,0.0,0.0,0.0,,0.0,0.0,0.0,0.0,0.0,0.0,0.0,0.0,0.0,0.0,0.0,0.0
159,2876.0,7917.0,5.5055632823365785,0.0019149785329866365,0.0017140617469556258,0.8565156812226347,-0.11724473967873476,0.0,3.0,-0.11724473967873476,10.051382722877552,8.552609193895329,0.0009559473538622836,293.0,274.0,4.4573378839590445,0.1386861313868613,0.309255079006772,2773.0,7917.0,0.0,0.0,0.0,0.0,0.0,0.0,,0.0,0.0,0.0,0.0,0.0,0.0,0.0,0.0,0.0,0.0,0.0,0.0
160,2876.0,7917.0,5.5055632823365785,0.0019149785329866365,0.0017140617469556258,0.8565156812226347,-0.11724473967873476,0.0,3.0,-0.11724473967873476,10.051382722877552,8.552609193895329,0.0009559473538622836,293.0,274.0,4.4573378839590445,0.1386861313868613,0.309255079006772,2773.0,7917.0,0.0,0.0,0.0,0.0,0.0,0.0,,0.0,0.0,0.0,0.0,0.0,0.0,0.0,0.0,0.0,0.0,0.0,0.0
527,2876.0,7917.0,5.5055632823365785,0.0019149785329866365,0.0017140617469556258,0.8565156812226347,-0.11724473967873476,0.0,3.0,-0.11724473967873476,10.051382722877552,8.552609193895329,0.0009559473538622836,293.0,274.0,4.4573378839590445,0.1386861313868613,0.309255079006772,2773.0,7917.0,0.0,0.0,0.0,0.0,0.0,0.0,,0.0,0.0,0.0,0.0,0.0,0.0,0.0,0.0,0.0,0.0,0.0,0.0
529,2876.0,7917.0,5.5055632823365785,0.0019149785329866365,0.0017140617469556258,0.8565156812226347,-0.11724473967873476,0.0,3.0,-0.11724473967873476,10.051382722877552,8.552609193895329,0.0009559473538622836,293.0,274.0,4.4573378839590445,0.1386861313868613,0.309255079006772,2773.0,7917.0,0.0,0.0,0.0,0.0,0.0,0.0,,0.0,0.0,0.0,0.0,0.0,0.0,0.0,0.0,0.0,0.0,0.0,0.0
531,2876.0,7917.0,5.5055632823365785,0.0019149785329866365,0.0017140617469556258,0.8565156812226347,-0.11724473967873476,0.0,3.0,-0.11724473967873476,10.051382722877552,8.552609193895329,0.0009559473538622836,293.0,274.0,4.4573378839590445,0.1386861313868613,0.309255079006772,2773.0,7917.0,0.0,0.0,0.0,0.0,0.0,0.0,,0.0,0.0,0.0,0.0,0.0,0.0,0.0,0.0,0.0,0.0,0.0,0.0
533,2876.0,7917.0,5.5055632823365785,0.0019149785329866365,0.0017140617469556258,0.8565156812226347,-0.11724473967873476,0.0,3.0,-0.11724473967873476,10.051382722877552,8.552609193895329,0.0009559473538622836,293.0,274.0,4.4573378839590445,0.1386861313868613,0.309255079006772,2773.0,7917.0,0.0,0.0,0.0,0.0,0.0,0.0,,0.0,0.0,0.0,0.0,0.0,0.0,0.0,0.0,0.0,0.0,0.0,0.0
535,2876.0,7917.0,5.5055632823365785,0.0019149785329866365,0.0017140617469556258,0.8565156812226347,-0.11724473967873476,0.0,3.0,-0.11724473967873476,10.051382722877552,8.552609193895329,0.0009559473538622836,293.0,274.0,4.4573378839590445,0.1386861313868613,0.309255079006772,2773.0,7917.0,0.0,0.0,0.0,0.0,0.0,0.0,,0.0,0.0,0.0,0.0,0.0,0.0,0.0,0.0,0.0,0.0,0.0,0.0
537,2876.0,7917.0,5.5055632823365785,0.0019149785329866365,0.0017140617469556258,0.8565156812226347,-0.11724473967873476,0.0,3.0,-0.11724473967873476,10.051382722877552,8.552609193895329,0.0009559473538622836,293.0,274.0,4.4573378839590445,0.1386861313868613,0.309255079006772,2773.0,7917.0,0.0,0.0,0.0,0.0,0.0,0.0,,0.0,0.0,0.0,0.0,0.0,0.0,0.0,0.0,0.0,0.0,0.0,0.0
718,2876.0,7917.0,5.5055632823365785,0.0019149785329866365,0.0017140617469556258,0.8565156812226347,-0.11724473967873476,0.0,3.0,-0.11724473967873476,10.051382722877552,8.552609193895329,0.0009559473538622836,293.0,274.0,4.4573378839590445,0.1386861313868613,0.309255079006772,2773.0,7917.0,0.0,0.0,0.0,0.0,0.0,0.0,,0.0,0.0,0.0,0.0,0.0,0.0,0.0,0.0,0.0,0.0,0.0,0.0
697,2876.0,7917.0,5.5055632823365785,0.0019149785329866365,0.0017140617469556258,0.8565156812226347,-0.11724473967873476,0.0,3.0,-0.11724473967873476,10.051382722877552,8.552609193895329,0.0009559473538622836,293.0,274.0,4.4573378839590445,0.1386861313868613,0.309255079006772,2773.0,7917.0,0.0,0.0,0.0,0.0,0.0,0.0,,0.0,0.0,0.0,0.0,0.0,0.0,0.0,0.0,0.0,0.0,0.0,0.0
699,2876.0,7917.0,5.5055632823365785,0.0019149785329866365,0.0017140617469556258,0.8565156812226347,-0.11724473967873476,0.0,3.0,-0.11724473967873476,10.051382722877552,8.552609193895329,0.0009559473538622836,293.0,274.0,4.4573378839590445,0.1386861313868613,0.309255079006772,2773.0,7917.0,0.0,0.0,0.0,0.0,0.0,0.0,,0.0,0.0,0.0,0.0,0.0,0.0,0.0,0.0,0.0,0.0,0.0,0.0
701,2876.0,7917.0,5.5055632823365785,0.0019149785329866365,0.0017140617469556258,0.8565156812226347,-0.11724473967873476,0.0,3.0,-0.11724473967873476,10.051382722877552,8.552609193895329,0.0009559473538622836,293.0,274.0,4.4573378839590445,0.1386861313868613,0.309255079006772,2773.0,7917.0,0.0,0.0,0.0,0.0,0.0,0.0,,0.0,0.0,0.0,0.0,0.0,0.0,0.0,0.0,0.0,0.0,0.0,0.0
703,2876.0,7917.0,5.5055632823365785,0.0019149785329866365,0.0017140617469556258,0.8565156812226347,-0.11724473967873476,0.0,3.0,-0.11724473967873476,10.051382722877552,8.552609193895329,0.0009559473538622836,293.0,274.0,4.4573378839590445,0.1386861313868613,0.309255079006772,2773.0,7917.0,0.0,0.0,0.0,0.0,0.0,0.0,,0.0,0.0,0.0,0.0,0.0,0.0,0.0,0.0,0.0,0.0,0.0,0.0
705,2876.0,7917.0,5.5055632823365785,0.0019149785329866365,0.0017140617469556258,0.8565156812226347,-0.11724473967873476,0.0,3.0,-0.11724473967873476,10.051382722877552,8.552609193895329,0.0009559473538622836,293.0,274.0,4.4573378839590445,0.1386861313868613,0.309255079006772,2773.0,7917.0,0.0,0.0,0.0,0.0,0.0,0.0,,0.0,0.0,0.0,0.0,0.0,0.0,0.0,0.0,0.0,0.0,0.0,0.0
707,2876.0,7917.0,5.5055632823365785,0.0019149785329866365,0.0017140617469556258,0.8565156812226347,-0.11724473967873476,0.0,3.0,-0.11724473967873476,10.051382722877552,8.552609193895329,0.0009559473538622836,293.0,274.0,4.4573378839590445,0.1386861313868613,0.309255079006772,2773.0,7917.0,0.0,0.0,0.0,0.0,0.0,0.0,,0.0,0.0,0.0,0.0,0.0,0.0,0.0,0.0,0.0,0.0,0.0,0.0
711,2876.0,7917.0,5.5055632823365785,0.0019149785329866365,0.0017140617469556258,0.8565156812226347,-0.11724473967873476,0.0,3.0,-0.11724473967873476,10.051382722877552,8.552609193895329,0.0009559473538622836,293.0,274.0,4.4573378839590445,0.1386861313868613,0.309255079006772,2773.0,7917.0,0.0,0.0,0.0,0.0,0.0,0.0,,0.0,0.0,0.0,0.0,0.0,0.0,0.0,0.0,0.0,0.0,0.0,0.0
307,2876.0,7917.0,5.5055632823365785,0.0019149785329866365,0.0017140617469556258,0.8565156812226347,-0.11724473967873476,0.0,3.0,-0.11724473967873476,10.051382722877552,8.552609193895329,0.0009559473538622836,293.0,274.0,4.4573378839590445,0.1386861313868613,0.309255079006772,2773.0,7917.0,0.0,0.0,0.0,0.0,0.0,0.0,,0.0,0.0,0.0,0.0,0.0,0.0,0.0,0.0,0.0,0.0,0.0,0.0
309,2876.0,7917.0,5.5055632823365785,0.0019149785329866365,0.0017140617469556258,0.8565156812226347,-0.11724473967873476,0.0,3.0,-0.11724473967873476,10.051382722877552,8.552609193895329,0.0009559473538622836,293.0,274.0,4.4573378839590445,0.1386861313868613,0.309255079006772,2773.0,7917.0,0.0,0.0,0.0,0.0,0.0,0.0,,0.0,0.0,0.0,0.0,0.0,0.0,0.0,0.0,0.0,0.0,0.0,0.0
430,2876.0,7917.0,5.5055632823365785,0.0019149785329866365,0.0017140617469556258,0.8565156812226347,-0.11724473967873476,0.0,3.0,-0.11724473967873476,10.051382722877552,8.552609193895329,0.0009559473538622836,293.0,274.0,4.4573378839590445,0.1386861313868613,0.309255079006772,2773.0,7917.0,0.0,0.0,0.0,0.0,0.0,0.0,,0.0,0.0,0.0,0.0,0.0,0.0,0.0,0.0,0.0,0.0,0.0,0.0
434,2876.0,7917.0,5.5055632823365785,0.0019149785329866365,0.0017140617469556258,0.8565156812226347,-0.11724473967873476,0.0,3.0,-0.11724473967873476,10.051382722877552,8.552609193895329,0.0009559473538622836,293.0,274.0,4.4573378839590445,0.1386861313868613,0.309255079006772,2773.0,7917.0,0.0,0.0,0.0,0.0,0.0,0.0,,0.0,0.0,0.0,0.0,0.0,0.0,0.0,0.0,0.0,0.0,0.0,0.0
436,2876.0,7917.0,5.5055632823365785,0.0019149785329866365,0.0017140617469556258,0.8565156812226347,-0.11724473967873476,0.0,3.0,-0.11724473967873476,10.051382722877552,8.552609193895329,0.0009559473538622836,293.0,274.0,4.4573378839590445,0.1386861313868613,0.309255079006772,2773.0,7917.0,0.0,0.0,0.0,0.0,0.0,0.0,,0.0,0.0,0.0,0.0,0.0,0.0,0.0,0.0,0.0,0.0,0.0,0.0
14,2876.0,7917.0,5.5055632823365785,0.0019149785329866365,0.0017140617469556258,0.8565156812226347,-0.11724473967873476,0.0,3.0,-0.11724473967873476,10.051382722877552,8.552609193895329,0.0009559473538622836,293.0,274.0,4.4573378839590445,0.1386861313868613,0.309255079006772,2773.0,7917.0,0.0,0.0,0.0,0.0,0.0,0.0,,0.0,0.0,0.0,0.0,0.0,0.0,0.0,0.0,0.0,0.0,0.0,0.0
15,2876.0,7917.0,5.5055632823365785,0.0019149785329866365,0.0017140617469556258,0.8565156812226347,-0.11724473967873476,0.0,3.0,-0.11724473967873476,10.051382722877552,8.552609193895329,0.0009559473538622836,293.0,274.0,4.4573378839590445,0.1386861313868613,0.309255079006772,2773.0,7917.0,0.0,0.0,0.0,0.0,0.0,0.0,,0.0,0.0,0.0,0.0,0.0,0.0,0.0,0.0,0.0,0.0,0.0,0.0
16,2923.0,7992.0,5.468354430379747,0.0018714423101915628,0.0016854647751902404,0.8617992128622298,-0.11399987427934195,0.0,3.0,-0.11399987427934195,10.078876045415402,8.599639323291568,0.0009342306098283354,293.0,274.0,4.566552901023891,0.1386861313868613,0.309255079006772,2812.0,7992.0,4.0,4.0,0.0,0.0,0.0,1.0,0.0,0.0,0.0005005005005005005,0.0,0.0,0.0,0.0,0.0,0.0,0.0,0.0,0.0,0.0
17,2923.0,7992.0,5.468354430379747,0.0018714423101915628,0.0016854647751902404,0.8617992128622298,-0.11399987427934195,0.0,3.0,-0.11399987427934195,10.078876045415402,8.599639323291568,0.0009342306098283354,293.0,274.0,4.566552901023891,0.1386861313868613,0.309255079006772,2812.0,7992.0,4.0,4.0,0.0,0.0,0.0,1.0,,0.0,0.0005005005005005005,0.0,0.0,0.0,0.0,0.0,0.0,0.0,0.0,0.0,0.0
18,2923.0,7992.0,5.468354430379747,0.0018714423101915628,0.0016854647751902404,0.8617992128622298,-0.11399987427934195,0.0,3.0,-0.11399987427934195,10.078876045415402,8.599639323291568,0.0009342306098283354,293.0,274.0,4.566552901023891,0.1386861313868613,0.309255079006772,2812.0,7992.0,4.0,4.0,0.0,0.0,0.0,1.0,,0.0,0.0005005005005005005,0.0,0.0,0.0,0.0,0.0,0.0,0.0,0.0,0.0,0.0
19,2923.0,7992.0,5.468354430379747,0.0018714423101915628,0.0016854647751902404,0.8617992128622298,-0.11399987427934195,0.0,3.0,-0.11399987427934195,10.078876045415402,8.599639323291568,0.0009342306098283354,293.0,274.0,4.566552901023891,0.1386861313868613,0.309255079006772,2812.0,7992.0,4.0,4.0,0.0,0.0,0.0,1.0,,0.0,0.0005005005005005005,0.0,0.0,0.0,0.0,0.0,0.0,0.0,0.0,0.0,0.0
20,2940.0,8017.0,5.4537414965986395,0.0018556452863554406,0.0016763103892890546,0.8657162468921645,-0.11212966254862919,0.0,3.0,-0.11212966254862919,10.08799613187658,8.612079259336692,0.0009263501318894905,293.0,274.0,4.604095563139932,0.1386861313868613,0.309255079006772,2825.0,8017.0,7.0,7.0,0.0,0.0,0.0,1.0,0.0,0.0,0.000873144567793439,0.0,0.0,0.0,0.0,0.0,0.0,0.0,0.0,0.0,0.0
21,2940.0,8017.0,5.4537414965986395,0.0018556452863554406,0.0016763103892890546,0.8657162468921645,-0.11212966254862919,0.0,3.0,-0.11212966254862919,10.08799613187658,8.612079259336692,0.0009263501318894905,293.0,274.0,4.604095563139932,0.1386861313868613,0.309255079006772,2825.0,8017.0,7.0,7.0,0.0,0.0,0.0,1.0,,0.0,0.000873144567793439,0.0,0.0,0.0,0.0,0.0,0.0,0.0,0.0,0.0,0.0
22,2940.0,8017.0,5.4537414965986395,0.0018556452863554406,0.0016763103892890546,0.8657162468921645,-0.11212966254862919,0.0,3.0,-0.11212966254862919,10.08799613187658,8.612079259336692,0.0009263501318894905,293.0,274.0,4.604095563139932,0.1386861313868613,0.309255079006772,2825.0,8017.0,7.0,7.0,0.0,0.0,0.0,1.0,,0.0,0.000873144567793439,0.0,0.0,0.0,0.0,0.0,0.0,0.0,0.0,0.0,0.0
23,2940.0,8017.0,5.4537414965986395,0.0018556452863554406,0.0016763103892890546,0.8657162468921645,-0.11212966254862919,0.0,3.0,-0.11212966254862919,10.08799613187658,8.612079259336692,0.0009263501318894905,293.0,274.0,4.604095563139932,0.1386861313868613,0.309255079006772,2825.0,8017.0,7.0,7.0,0.0,0.0,0.0,1.0,,0.0,0.000873144567793439,0.0,0.0,0.0,0.0,0.0,0.0,0.0,0.0,0.0,0.0
24,2947.0,8031.0,5.450288428910756,0.0018500639609337257,0.0016736593788112748,0.8670273414953422,-0.11175311842611364,0.0,3.0,-0.11175311842611364,10.09226873746887,8.618650728849747,0.000923566655294319,293.0,274.0,4.624573378839591,0.1386861313868613,0.309255079006772,2833.0,8031.0,8.0,8.0,0.0,0.0,0.0,1.0,0.0,0.0,0.0009961399576640518,0.0,0.0,0.0,0.0,0.0,0.0,0.0,0.0,0.0,0.0
25,2947.0,8031.0,5.450288428910756,0.0018500639609337257,0.0016736593788112748,0.8670273414953422,-0.11175311842611364,0.0,3.0,-0.11175311842611364,10.09226873746887,8.618650728849747,0.000923566655294319,293.0,274.0,4.624573378839591,0.1386861313868613,0.309255079006772,2833.0,8031.0,8.0,8.0,0.0,0.0,0.0,1.0,,0.0,0.0009961399576640518,0.0,0.0,0.0,0.0,0.0,0.0,0.0,0.0,0.0,0.0
26,2958.0,8051.0,5.443542934415145,0.0018409005527274757,0.0016688024928618141,0.8694745658765937,-0.11094884550495276,0.0,3.0,-0.11094884550495276,10.098753216419372,8.627541801449862,0.0009189962152122046,293.0,274.0,4.651877133105802,0.1386861313868613,0.309255079006772,2843.0,8051.0,10.0,10.0,0.0,0.0,0.0,1.0,0.0,0.0,0.0012420817289777667,0.0,0.0,0.0,0.0,0.0,0.0,0.0,0.0,0.0,0.0
364,2958.0,8051.0,5.443542934415145,0.0018409005527274757,0.0016688024928618141,0.8694745658765937,-0.11094884550495276,0.0,3.0,-0.11094884550495276,10.098753216419372,8.627541801449862,0.0009189962152122046,293.0,274.0,4.651877133105802,0.1386861313868613,0.309255079006772,2843.0,8051.0,10.0,10.0,0.0,0.0,0.0,1.0,,0.0,0.0012420817289777667,0.0,0.0,0.0,0.0,0.0,0.0,0.0,0.0,0.0,0.0
365,2958.0,8051.0,5.443542934415145,0.0018409005527274757,0.0016688024928618141,0.8694745658765937,-0.11094884550495276,0.0,3.0,-0.11094884550495276,10.098753216419372,8.627541801449862,0.0009189962152122046,293.0,274.0,4.651877133105802,0.1386861313868613,0.309255079006772,2843.0,8051.0,10.0,10.0,0.0,0.0,0.0,1.0,,0.0,0.0012420817289777667,0.0,0.0,0.0,0.0,0.0,0.0,0.0,0.0,0.0,0.0
366,2967.0,8069.0,5.439164138860802,0.0018338382126975058,0.00166564984287697,0.8713534768665198,-0.11052965727136514,0.0,3.0,-0.11052965727136514,10.10432690182177,8.636420824556085,0.0009154741023293074,293.0,274.0,4.675767918088737,0.1386861313868613,0.309255079006772,2852.0,8069.0,11.0,11.0,0.0,0.0,0.0,1.0,0.0,0.0,0.0013632420374271904,0.0,0.0,0.0,0.0,0.0,0.0,0.0,0.0,0.0,0.0
367,2967.0,8069.0,5.439164138860802,0.0018338382126975058,0.00166564984287697,0.8713534768665198,-0.11052965727136514,0.0,3.0,-0.11052965727136514,10.10432690182177,8.636420824556085,0.0009154741023293074,293.0,274.0,4.675767918088737,0.1386861313868613,0.309255079006772,2852.0,8069.0,11.0,11.0,0.0,0.0,0.0,1.0,,0.0,0.0013632420374271904,0.0,0.0,0.0,0.0,0.0,0.0,0.0,0.0,0.0,0.0
368,2980.0,8089.0,5.428859060402685,0.0018223763210482328,0.001658907010682835,0.874045958503072,-0.11001990972445658,0.0,3.0,-0.11001990972445658,10.110980022195893,8.646152841578546,0.0009097563172830053,293.0,274.0,4.699658703071672,0.1386861313868613,0.309255079006772,2861.0,8089.0,12.0,13.0,0.0,0.0,0.0,1.0,0.0,0.0,0.001607120781307949,0.0,0.0,0.0,0.0,0.0,0.0,0.0,0.0,0.0,0.0
369,2980.0,8089.0,5.428859060402685,0.0018223763210482328,0.001658907010682835,0.874045958503072,-0.11001990972445658,0.0,3.0,-0.11001990972445658,10.110980022195893,8.646152841578546,0.0009097563172830053,293.0,274.0,4.699658703071672,0.1386861313868613,0.309255079006772,2861.0,8089.0,12.0,13.0,0.0,0.0,0.0,1.0,,0.0,0.001607120781307949,0.0,0.0,0.0,0.0,0.0,0.0,0.0,0.0,0.0,0.0
370,2980.0,8089.0,5.428859060402685,0.0018223763210482328,0.001658907010682835,0.874045958503072,-0.11001990972445658,0.0,3.0,-0.11001990972445658,10.110980022195893,8.646152841578546,0.0009097563172830053,293.0,274.0,4.699658703071672,0.1386861313868613,0.309255079006772,2861.0,8089.0,12.0,13.0,0.0,0.0,0.0,1.0,,0.0,0.001607120781307949,0.0,0.0,0.0,0.0,0.0,0.0,0.0,0.0,0.0,0.0
371,2980.0,8089.0,5.428859060402685,0.0018223763210482328,0.001658907010682835,0.874045958503072,-0.11001990972445658,0.0,3.0,-0.11001990972445658,10.110980022195893,8.646152841578546,0.0009097563172830053,293.0,274.0,4.699658703071672,0.1386861313868613,0.309255079006772,2861.0,8089.0,12.0,13.0,0.0,0.0,0.0,1.0,,0.0,0.001607120781307949,0.0,0.0,0.0,0.0,0.0,0.0,0.0,0.0,0.0,0.0
490,2980.0,8089.0,5.428859060402685,0.0018223763210482328,0.001658907010682835,0.874045958503072,-0.11001990972445658,0.0,3.0,-0.11001990972445658,10.110980022195893,8.646152841578546,0.0009097563172830053,293.0,274.0,4.699658703071672,0.1386861313868613,0.309255079006772,2861.0,8089.0,12.0,13.0,0.0,0.0,0.0,1.0,,0.0,0.001607120781307949,0.0,0.0,0.0,0.0,0.0,0.0,0.0,0.0,0.0,0.0
851,2980.0,8089.0,5.428859060402685,0.0018223763210482328,0.001658907010682835,0.874045958503072,-0.11001990972445658,0.0,3.0,-0.11001990972445658,10.110980022195893,8.646152841578546,0.0009097563172830053,293.0,274.0,4.699658703071672,0.1386861313868613,0.309255079006772,2861.0,8089.0,12.0,13.0,0.0,0.0,0.0,1.0,,0.0,0.001607120781307949,0.0,0.0,0.0,0.0,0.0,0.0,0.0,0.0,0.0,0.0
853,2980.0,8089.0,5.428859060402685,0.0018223763210482328,0.001658907010682835,0.874045958503072,-0.11001990972445658,0.0,3.0,-0.11001990972445658,10.110980022195893,8.646152841578546,0.0009097563172830053,293.0,274.0,4.699658703071672,0.1386861313868613,0.309255079006772,2861.0,8089.0,12.0,13.0,0.0,0.0,0.0,1.0,,0.0,0.001607120781307949,0.0,0.0,0.0,0.0,0.0,0.0,0.0,0.0,0.0,0.0
856,2980.0,8089.0,5.428859060402685,0.0018223763210482328,0.001658907010682835,0.874045958503072,-0.11001990972445658,0.0,3.0,-0.11001990972445658,10.110980022195893,8.646152841578546,0.0009097563172830053,293.0,274.0,4.699658703071672,0.1386861313868613,0.309255079006772,2861.0,8089.0,12.0,13.0,0.0,0.0,0.0,1.0,,0.0,0.001607120781307949,0.0,0.0,0.0,0.0,0.0,0.0,0.0,0.0,0.0,0.0
860,2980.0,8089.0,5.428859060402685,0.0018223763210482328,0.001658907010682835,0.874045958503072,-0.11001990972445658,0.0,3.0,-0.11001990972445658,10.110980022195893,8.646152841578546,0.0009097563172830053,293.0,274.0,4.699658703071672,0.1386861313868613,0.309255079006772,2861.0,8089.0,12.0,13.0,0.0,0.0,0.0,1.0,,0.0,0.001607120781307949,0.0,0.0,0.0,0.0,0.0,0.0,0.0,0.0,0.0,0.0
862,2980.0,8089.0,5.428859060402685,0.0018223763210482328,0.001658907010682835,0.874045958503072,-0.11001990972445658,0.0,3.0,-0.11001990972445658,10.110980022195893,8.646152841578546,0.0009097563172830053,293.0,274.0,4.699658703071672,0.1386861313868613,0.309255079006772,2861.0,8089.0,12.0,13.0,0.0,0.0,0.0,1.0,,0.0,0.001607120781307949,0.0,0.0,0.0,0.0,0.0,0.0,0.0,0.0,0.0,0.0
864,2980.0,8089.0,5.428859060402685,0.0018223763210482328,0.001658907010682835,0.874045958503072,-0.11001990972445658,0.0,3.0,-0.11001990972445658,10.110980022195893,8.646152841578546,0.0009097563172830053,293.0,274.0,4.699658703071672,0.1386861313868613,0.309255079006772,2861.0,8089.0,12.0,13.0,0.0,0.0,0.0,1.0,,0.0,0.001607120781307949,0.0,0.0,0.0,0.0,0.0,0.0,0.0,0.0,0.0,0.0
866,2980.0,8089.0,5.428859060402685,0.0018223763210482328,0.001658907010682835,0.874045958503072,-0.11001990972445658,0.0,3.0,-0.11001990972445658,10.110980022195893,8.646152841578546,0.0009097563172830053,293.0,274.0,4.699658703071672,0.1386861313868613,0.309255079006772,2861.0,8089.0,12.0,13.0,0.0,0.0,0.0,1.0,,0.0,0.001607120781307949,0.0,0.0,0.0,0.0,0.0,0.0,0.0,0.0,0.0,0.0
868,2980.0,8089.0,5.428859060402685,0.0018223763210482328,0.001658907010682835,0.874045958503072,-0.11001990972445658,0.0,3.0,-0.11001990972445658,10.110980022195893,8.646152841578546,0.0009097563172830053,293.0,274.0,4.699658703071672,0.1386861313868613,0.309255079006772,2861.0,8089.0,12.0,13.0,0.0,0.0,0.0,1.0,,0.0,0.001607120781307949,0.0,0.0,0.0,0.0,0.0,0.0,0.0,0.0,0.0,0.0
233,2980.0,8089.0,5.428859060402685,0.0018223763210482328,0.001658907010682835,0.874045958503072,-0.11001990972445658,0.0,3.0,-0.11001990972445658,10.110980022195893,8.646152841578546,0.0009097563172830053,293.0,274.0,4.699658703071672,0.1386861313868613,0.309255079006772,2861.0,8089.0,12.0,13.0,0.0,0.0,0.0,1.0,,0.0,0.001607120781307949,0.0,0.0,0.0,0.0,0.0,0.0,0.0,0.0,0.0,0.0
234,2980.0,8089.0,5.428859060402685,0.0018223763210482328,0.001658907010682835,0.874045958503072,-0.11001990972445658,0.0,3.0,-0.11001990972445658,10.110980022195893,8.646152841578546,0.0009097563172830053,293.0,274.0,4.699658703071672,0.1386861313868613,0.309255079006772,2861.0,8089.0,12.0,13.0,0.0,0.0,0.0,1.0,,0.0,0.001607120781307949,0.0,0.0,0.0,0.0,0.0,0.0,0.0,0.0,0.0,0.0
235,2980.0,8089.0,5.428859060402685,0.0018223763210482328,0.001658907010682835,0.874045958503072,-0.11001990972445658,0.0,3.0,-0.11001990972445658,10.110980022195893,8.646152841578546,0.0009097563172830053,293.0,274.0,4.699658703071672,0.1386861313868613,0.309255079006772,2861.0,8089.0,12.0,13.0,0.0,0.0,0.0,1.0,,0.0,0.001607120781307949,0.0,0.0,0.0,0.0,0.0,0.0,0.0,0.0,0.0,0.0
911,2980.0,8089.0,5.428859060402685,0.0018223763210482328,0.001658907010682835,0.874045958503072,-0.11001990972445658,0.0,3.0,-0.11001990972445658,10.110980022195893,8.646152841578546,0.0009097563172830053,293.0,274.0,4.699658703071672,0.1386861313868613,0.309255079006772,2861.0,8089.0,12.0,13.0,0.0,0.0,0.0,1.0,,0.0,0.001607120781307949,0.0,0.0,0.0,0.0,0.0,0.0,0.0,0.0,0.0,0.0
915,2980.0,8089.0,5.428859060402685,0.0018223763210482328,0.001658907010682835,0.874045958503072,-0.11001990972445658,0.0,3.0,-0.11001990972445658,10.110980022195893,8.646152841578546,0.0009097563172830053,293.0,274.0,4.699658703071672,0.1386861313868613,0.309255079006772,2861.0,8089.0,12.0,13.0,0.0,0.0,0.0,1.0,,0.0,0.001607120781307949,0.0,0.0,0.0,0.0,0.0,0.0,0.0,0.0,0.0,0.0
895,2980.0,8089.0,5.428859060402685,0.0018223763210482328,0.001658907010682835,0.874045958503072,-0.11001990972445658,0.0,3.0,-0.11001990972445658,10.110980022195893,8.646152841578546,0.0009097563172830053,293.0,274.0,4.699658703071672,0.1386861313868613,0.309255079006772,2861.0,8089.0,12.0,13.0,0.0,0.0,0.0,1.0,,0.0,0.001607120781307949,0.0,0.0,0.0,0.0,0.0,0.0,0.0,0.0,0.0,0.0
902,2980.0,8089.0,5.428859060402685,0.0018223763210482328,0.001658907010682835,0.874045958503072,-0.11001990972445658,0.0,3.0,-0.11001990972445658,10.110980022195893,8.646152841578546,0.0009097563172830053,293.0,274.0,4.699658703071672,0.1386861313868613,0.309255079006772,2861.0,8089.0,12.0,13.0,0.0,0.0,0.0,1.0,,0.0,0.001607120781307949,0.0,0.0,0.0,0.0,0.0,0.0,0.0,0.0,0.0,0.0
904,2980.0,8089.0,5.428859060402685,0.0018223763210482328,0.001658907010682835,0.874045958503072,-0.11001990972445658,0.0,3.0,-0.11001990972445658,10.110980022195893,8.646152841578546,0.0009097563172830053,293.0,274.0,4.699658703071672,0.1386861313868613,0.309255079006772,2861.0,8089.0,12.0,13.0,0.0,0.0,0.0,1.0,,0.0,0.001607120781307949,0.0,0.0,0.0,0.0,0.0,0.0,0.0,0.0,0.0,0.0
967,2980.0,8089.0,5.428859060402685,0.0018223763210482328,0.001658907010682835,0.874045958503072,-0.11001990972445658,0.0,3.0,-0.11001990972445658,10.110980022195893,8.646152841578546,0.0009097563172830053,293.0,274.0,4.699658703071672,0.1386861313868613,0.309255079006772,2861.0,8089.0,12.0,13.0,0.0,0.0,0.0,1.0,,0.0,0.001607120781307949,0.0,0.0,0.0,0.0,0.0,0.0,0.0,0.0,0.0,0.0
968,2980.0,8089.0,5.428859060402685,0.0018223763210482328,0.001658907010682835,0.874045958503072,-0.11001990972445658,0.0,3.0,-0.11001990972445658,10.110980022195893,8.646152841578546,0.0009097563172830053,293.0,274.0,4.699658703071672,0.1386861313868613,0.309255079006772,2861.0,8089.0,12.0,13.0,0.0,0.0,0.0,1.0,,0.0,0.001607120781307949,0.0,0.0,0.0,0.0,0.0,0.0,0.0,0.0,0.0,0.0
969,2980.0,8089.0,5.428859060402685,0.0018223763210482328,0.001658907010682835,0.874045958503072,-0.11001990972445658,0.0,3.0,-0.11001990972445658,10.110980022195893,8.646152841578546,0.0009097563172830053,293.0,274.0,4.699658703071672,0.1386861313868613,0.309255079006772,2861.0,8089.0,12.0,13.0,0.0,0.0,0.0,1.0,,0.0,0.001607120781307949,0.0,0.0,0.0,0.0,0.0,0.0,0.0,0.0,0.0,0.0
970,2980.0,8089.0,5.428859060402685,0.0018223763210482328,0.001658907010682835,0.874045958503072,-0.11001990972445658,0.0,3.0,-0.11001990972445658,10.110980022195893,8.646152841578546,0.0009097563172830053,293.0,274.0,4.699658703071672,0.1386861313868613,0.309255079006772,2861.0,8089.0,12.0,13.0,0.0,0.0,0.0,1.0,,0.0,0.001607120781307949,0.0,0.0,0.0,0.0,0.0,0.0,0.0,0.0,0.0,0.0
971,2980.0,8089.0,5.428859060402685,0.0018223763210482328,0.001658907010682835,0.874045958503072,-0.11001990972445658,0.0,3.0,-0.11001990972445658,10.110980022195893,8.646152841578546,0.0009097563172830053,293.0,274.0,4.699658703071672,0.1386861313868613,0.309255079006772,2861.0,8089.0,12.0,13.0,0.0,0.0,0.0,1.0,,0.0,0.001607120781307949,0.0,0.0,0.0,0.0,0.0,0.0,0.0,0.0,0.0,0.0
973,2980.0,8089.0,5.428859060402685,0.0018223763210482328,0.001658907010682835,0.874045958503072,-0.11001990972445658,0.0,3.0,-0.11001990972445658,10.110980022195893,8.646152841578546,0.0009097563172830053,293.0,274.0,4.699658703071672,0.1386861313868613,0.309255079006772,2861.0,8089.0,12.0,13.0,0.0,0.0,0.0,1.0,,0.0,0.001607120781307949,0.0,0.0,0.0,0.0,0.0,0.0,0.0,0.0,0.0,0.0
106,2980.0,8089.0,5.428859060402685,0.0018223763210482328,0.001658907010682835,0.874045958503072,-0.11001990972445658,0.0,3.0,-0.11001990972445658,10.110980022195893,8.646152841578546,0.0009097563172830053,293.0,274.0,4.699658703071672,0.1386861313868613,0.309255079006772,2861.0,8089.0,12.0,13.0,0.0,0.0,0.0,1.0,,0.0,0.001607120781307949,0.0,0.0,0.0,0.0,0.0,0.0,0.0,0.0,0.0,0.0
107,2980.0,8089.0,5.428859060402685,0.0018223763210482328,0.001658907010682835,0.874045958503072,-0.11001990972445658,0.0,3.0,-0.11001990972445658,10.110980022195893,8.646152841578546,0.0009097563172830053,293.0,274.0,4.699658703071672,0.1386861313868613,0.309255079006772,2861.0,8089.0,12.0,13.0,0.0,0.0,0.0,1.0,,0.0,0.001607120781307949,0.0,0.0,0.0,0.0,0.0,0.0,0.0,0.0,0.0,0.0
108,2980.0,8089.0,5.428859060402685,0.0018223763210482328,0.001658907010682835,0.874045958503072,-0.11001990972445658,0.0,3.0,-0.11001990972445658,10.110980022195893,8.646152841578546,0.0009097563172830053,293.0,274.0,4.699658703071672,0.1386861313868613,0.309255079006772,2861.0,8089.0,12.0,13.0,0.0,0.0,0.0,1.0,,0.0,0.001607120781307949,0.0,0.0,0.0,0.0,0.0,0.0,0.0,0.0,0.0,0.0
110,2980.0,8089.0,5.428859060402685,0.0018223763210482328,0.001658907010682835,0.874045958503072,-0.11001990972445658,0.0,3.0,-0.11001990972445658,10.110980022195893,8.646152841578546,0.0009097563172830053,293.0,274.0,4.699658703071672,0.1386861313868613,0.309255079006772,2861.0,8089.0,12.0,13.0,0.0,0.0,0.0,1.0,,0.0,0.001607120781307949,0.0,0.0,0.0,0.0,0.0,0.0,0.0,0.0,0.0,0.0
112,2980.0,8089.0,5.428859060402685,0.0018223763210482328,0.001658907010682835,0.874045958503072,-0.11001990972445658,0.0,3.0,-0.11001990972445658,10.110980022195893,8.646152841578546,0.0009097563172830053,293.0,274.0,4.699658703071672,0.1386861313868613,0.309255079006772,2861.0,8089.0,12.0,13.0,0.0,0.0,0.0,1.0,,0.0,0.001607120781307949,0.0,0.0,0.0,0.0,0.0,0.0,0.0,0.0,0.0,0.0
114,2980.0,8089.0,5.428859060402685,0.0018223763210482328,0.001658907010682835,0.874045958503072,-0.11001990972445658,0.0,3.0,-0.11001990972445658,10.110980022195893,8.646152841578546,0.0009097563172830053,293.0,274.0,4.699658703071672,0.1386861313868613,0.309255079006772,2861.0,8089.0,12.0,13.0,0.0,0.0,0.0,1.0,,0.0,0.001607120781307949,0.0,0.0,0.0,0.0,0.0,0.0,0.0,0.0,0.0,0.0
116,2980.0,8089.0,5.428859060402685,0.0018223763210482328,0.001658907010682835,0.874045958503072,-0.11001990972445658,0.0,3.0,-0.11001990972445658,10.110980022195893,8.646152841578546,0.0009097563172830053,293.0,274.0,4.699658703071672,0.1386861313868613,0.309255079006772,2861.0,8089.0,12.0,13.0,0.0,0.0,0.0,1.0,,0.0,0.001607120781307949,0.0,0.0,0.0,0.0,0.0,0.0,0.0,0.0,0.0,0.0
813,2980.0,8089.0,5.428859060402685,0.0018223763210482328,0.001658907010682835,0.874045958503072,-0.11001990972445658,0.0,3.0,-0.11001990972445658,10.110980022195893,8.646152841578546,0.0009097563172830053,293.0,274.0,4.699658703071672,0.1386861313868613,0.309255079006772,2861.0,8089.0,12.0,13.0,0.0,0.0,0.0,1.0,,0.0,0.001607120781307949,0.0,0.0,0.0,0.0,0.0,0.0,0.0,0.0,0.0,0.0
815,2980.0,8089.0,5.428859060402685,0.0018223763210482328,0.001658907010682835,0.874045958503072,-0.11001990972445658,0.0,3.0,-0.11001990972445658,10.110980022195893,8.646152841578546,0.0009097563172830053,293.0,274.0,4.699658703071672,0.1386861313868613,0.309255079006772,2861.0,8089.0,12.0,13.0,0.0,0.0,0.0,1.0,,0.0,0.001607120781307949,0.0,0.0,0.0,0.0,0.0,0.0,0.0,0.0,0.0,0.0
310,2980.0,8089.0,5.428859060402685,0.0018223763210482328,0.001658907010682835,0.874045958503072,-0.11001990972445658,0.0,3.0,-0.11001990972445658,10.110980022195893,8.646152841578546,0.0009097563172830053,293.0,274.0,4.699658703071672,0.1386861313868613,0.309255079006772,2861.0,8089.0,12.0,13.0,0.0,0.0,0.0,1.0,,0.0,0.001607120781307949,0.0,0.0,0.0,0.0,0.0,0.0,0.0,0.0,0.0,0.0
312,2980.0,8089.0,5.428859060402685,0.0018223763210482328,0.001658907010682835,0.874045958503072,-0.11001990972445658,0.0,3.0,-0.11001990972445658,10.110980022195893,8.646152841578546,0.0009097563172830053,293.0,274.0,4.699658703071672,0.1386861313868613,0.309255079006772,2861.0,8089.0,12.0,13.0,0.0,0.0,0.0,1.0,,0.0,0.001607120781307949,0.0,0.0,0.0,0.0,0.0,0.0,0.0,0.0,0.0,0.0
314,2980.0,8089.0,5.428859060402685,0.0018223763210482328,0.001658907010682835,0.874045958503072,-0.11001990972445658,0.0,3.0,-0.11001990972445658,10.110980022195893,8.646152841578546,0.0009097563172830053,293.0,274.0,4.699658703071672,0.1386861313868613,0.309255079006772,2861.0,8089.0,12.0,13.0,0.0,0.0,0.0,1.0,,0.0,0.001607120781307949,0.0,0.0,0.0,0.0,0.0,0.0,0.0,0.0,0.0,0.0
388,2980.0,8089.0,5.428859060402685,0.0018223763210482328,0.001658907010682835,0.874045958503072,-0.11001990972445658,0.0,3.0,-0.11001990972445658,10.110980022195893,8.646152841578546,0.0009097563172830053,293.0,274.0,4.699658703071672,0.1386861313868613,0.309255079006772,2861.0,8089.0,12.0,13.0,0.0,0.0,0.0,1.0,,0.0,0.001607120781307949,0.0,0.0,0.0,0.0,0.0,0.0,0.0,0.0,0.0,0.0
389,2980.0,8089.0,5.428859060402685,0.0018223763210482328,0.001658907010682835,0.874045958503072,-0.11001990972445658,0.0,3.0,-0.11001990972445658,10.110980022195893,8.646152841578546,0.0009097563172830053,293.0,274.0,4.699658703071672,0.1386861313868613,0.309255079006772,2861.0,8089.0,12.0,13.0,0.0,0.0,0.0,1.0,,0.0,0.001607120781307949,0.0,0.0,0.0,0.0,0.0,0.0,0.0,0.0,0.0,0.0
213,2980.0,8089.0,5.428859060402685,0.0018223763210482328,0.001658907010682835,0.874045958503072,-0.11001990972445658,0.0,3.0,-0.11001990972445658,10.110980022195893,8.646152841578546,0.0009097563172830053,293.0,274.0,4.699658703071672,0.1386861313868613,0.309255079006772,2861.0,8089.0,12.0,13.0,0.0,0.0,0.0,1.0,,0.0,0.001607120781307949,0.0,0.0,0.0,0.0,0.0,0.0,0.0,0.0,0.0,0.0
215,2980.0,8089.0,5.428859060402685,0.0018223763210482328,0.001658907010682835,0.874045958503072,-0.11001990972445658,0.0,3.0,-0.11001990972445658,10.110980022195893,8.646152841578546,0.0009097563172830053,293.0,274.0,4.699658703071672,0.1386861313868613,0.309255079006772,2861.0,8089.0,12.0,13.0,0.0,0.0,0.0,1.0,,0.0,0.001607120781307949,0.0,0.0,0.0,0.0,0.0,0.0,0.0,0.0,0.0,0.0
217,2980.0,8089.0,5.428859060402685,0.0018223763210482328,0.001658907010682835,0.874045958503072,-0.11001990972445658,0.0,3.0,-0.11001990972445658,10.110980022195893,8.646152841578546,0.0009097563172830053,293.0,274.0,4.699658703071672,0.1386861313868613,0.309255079006772,2861.0,8089.0,12.0,13.0,0.0,0.0,0.0,1.0,,0.0,0.001607120781307949,0.0,0.0,0.0,0.0,0.0,0.0,0.0,0.0,0.0,0.0
219,2980.0,8089.0,5.428859060402685,0.0018223763210482328,0.001658907010682835,0.874045958503072,-0.11001990972445658,0.0,3.0,-0.11001990972445658,10.110980022195893,8.646152841578546,0.0009097563172830053,293.0,274.0,4.699658703071672,0.1386861313868613,0.309255079006772,2861.0,8089.0,12.0,13.0,0.0,0.0,0.0,1.0,,0.0,0.001607120781307949,0.0,0.0,0.0,0.0,0.0,0.0,0.0,0.0,0.0,0.0
222,2980.0,8089.0,5.428859060402685,0.0018223763210482328,0.001658907010682835,0.874045958503072,-0.11001990972445658,0.0,3.0,-0.11001990972445658,10.110980022195893,8.646152841578546,0.0009097563172830053,293.0,274.0,4.699658703071672,0.1386861313868613,0.309255079006772,2861.0,8089.0,12.0,13.0,0.0,0.0,0.0,1.0,,0.0,0.001607120781307949,0.0,0.0,0.0,0.0,0.0,0.0,0.0,0.0,0.0,0.0
224,2980.0,8089.0,5.428859060402685,0.0018223763210482328,0.001658907010682835,0.874045958503072,-0.11001990972445658,0.0,3.0,-0.11001990972445658,10.110980022195893,8.646152841578546,0.0009097563172830053,293.0,274.0,4.699658703071672,0.1386861313868613,0.309255079006772,2861.0,8089.0,12.0,13.0,0.0,0.0,0.0,1.0,,0.0,0.001607120781307949,0.0,0.0,0.0,0.0,0.0,0.0,0.0,0.0,0.0,0.0
226,2980.0,8089.0,5.428859060402685,0.0018223763210482328,0.001658907010682835,0.874045958503072,-0.11001990972445658,0.0,3.0,-0.11001990972445658,10.110980022195893,8.646152841578546,0.0009097563172830053,293.0,274.0,4.699658703071672,0.1386861313868613,0.309255079006772,2861.0,8089.0,12.0,13.0,0.0,0.0,0.0,1.0,,0.0,0.001607120781307949,0.0,0.0,0.0,0.0,0.0,0.0,0.0,0.0,0.0,0.0
228,2980.0,8089.0,5.428859060402685,0.0018223763210482328,0.001658907010682835,0.874045958503072,-0.11001990972445658,0.0,3.0,-0.11001990972445658,10.110980022195893,8.646152841578546,0.0009097563172830053,293.0,274.0,4.699658703071672,0.1386861313868613,0.309255079006772,2861.0,8089.0,12.0,13.0,0.0,0.0,0.0,1.0,,0.0,0.001607120781307949,0.0,0.0,0.0,0.0,0.0,0.0,0.0,0.0,0.0,0.0
232,2980.0,8089.0,5.428859060402685,0.0018223763210482328,0.001658907010682835,0.874045958503072,-0.11001990972445658,0.0,3.0,-0.11001990972445658,10.110980022195893,8.646152841578546,0.0009097563172830053,293.0,274.0,4.699658703071672,0.1386861313868613,0.309255079006772,2861.0,8089.0,12.0,13.0,0.0,0.0,0.0,1.0,,0.0,0.001607120781307949,0.0,0.0,0.0,0.0,0.0,0.0,0.0,0.0,0.0,0.0
520,2980.0,8089.0,5.428859060402685,0.0018223763210482328,0.001658907010682835,0.874045958503072,-0.11001990972445658,0.0,3.0,-0.11001990972445658,10.110980022195893,8.646152841578546,0.0009097563172830053,293.0,274.0,4.699658703071672,0.1386861313868613,0.309255079006772,2861.0,8089.0,12.0,13.0,0.0,0.0,0.0,1.0,,0.0,0.001607120781307949,0.0,0.0,0.0,0.0,0.0,0.0,0.0,0.0,0.0,0.0
522,2980.0,8089.0,5.428859060402685,0.0018223763210482328,0.001658907010682835,0.874045958503072,-0.11001990972445658,0.0,3.0,-0.11001990972445658,10.110980022195893,8.646152841578546,0.0009097563172830053,293.0,274.0,4.699658703071672,0.1386861313868613,0.309255079006772,2861.0,8089.0,12.0,13.0,0.0,0.0,0.0,1.0,,0.0,0.001607120781307949,0.0,0.0,0.0,0.0,0.0,0.0,0.0,0.0,0.0,0.0
524,2980.0,8089.0,5.428859060402685,0.0018223763210482328,0.001658907010682835,0.874045958503072,-0.11001990972445658,0.0,3.0,-0.11001990972445658,10.110980022195893,8.646152841578546,0.0009097563172830053,293.0,274.0,4.699658703071672,0.1386861313868613,0.309255079006772,2861.0,8089.0,12.0,13.0,0.0,0.0,0.0,1.0,,0.0,0.001607120781307949,0.0,0.0,0.0,0.0,0.0,0.0,0.0,0.0,0.0,0.0
98,2980.0,8089.0,5.428859060402685,0.0018223763210482328,0.001658907010682835,0.874045958503072,-0.11001990972445658,0.0,3.0,-0.11001990972445658,10.110980022195893,8.646152841578546,0.0009097563172830053,293.0,274.0,4.699658703071672,0.1386861313868613,0.309255079006772,2861.0,8089.0,12.0,13.0,0.0,0.0,0.0,1.0,,0.0,0.001607120781307949,0.0,0.0,0.0,0.0,0.0,0.0,0.0,0.0,0.0,0.0
100,2980.0,8089.0,5.428859060402685,0.0018223763210482328,0.001658907010682835,0.874045958503072,-0.11001990972445658,0.0,3.0,-0.11001990972445658,10.110980022195893,8.646152841578546,0.0009097563172830053,293.0,274.0,4.699658703071672,0.1386861313868613,0.309255079006772,2861.0,8089.0,12.0,13.0,0.0,0.0,0.0,1.0,,0.0,0.001607120781307949,0.0,0.0,0.0,0.0,0.0,0.0,0.0,0.0,0.0,0.0
102,2980.0,8089.0,5.428859060402685,0.0018223763210482328,0.001658907010682835,0.874045958503072,-0.11001990972445658,0.0,3.0,-0.11001990972445658,10.110980022195893,8.646152841578546,0.0009097563172830053,293.0,274.0,4.699658703071672,0.1386861313868613,0.309255079006772,2861.0,8089.0,12.0,13.0,0.0,0.0,0.0,1.0,,0.0,0.001607120781307949,0.0,0.0,0.0,0.0,0.0,0.0,0.0,0.0,0.0,0.0
104,2980.0,8089.0,5.428859060402685,0.0018223763210482328,0.001658907010682835,0.874045958503072,-0.11001990972445658,0.0,3.0,-0.11001990972445658,10.110980022195893,8.646152841578546,0.0009097563172830053,293.0,274.0,4.699658703071672,0.1386861313868613,0.309255079006772,2861.0,8089.0,12.0,13.0,0.0,0.0,0.0,1.0,,0.0,0.001607120781307949,0.0,0.0,0.0,0.0,0.0,0.0,0.0,0.0,0.0,0.0
105,2980.0,8089.0,5.428859060402685,0.0018223763210482328,0.001658907010682835,0.874045958503072,-0.11001990972445658,0.0,3.0,-0.11001990972445658,10.110980022195893,8.646152841578546,0.0009097563172830053,293.0,274.0,4.699658703071672,0.1386861313868613,0.309255079006772,2861.0,8089.0,12.0,13.0,0.0,0.0,0.0,1.0,,0.0,0.001607120781307949,0.0,0.0,0.0,0.0,0.0,0.0,0.0,0.0,0.0,0.0
62,2980.0,8089.0,5.428859060402685,0.0018223763210482328,0.001658907010682835,0.874045958503072,-0.11001990972445658,0.0,3.0,-0.11001990972445658,10.110980022195893,8.646152841578546,0.0009097563172830053,293.0,274.0,4.699658703071672,0.1386861313868613,0.309255079006772,2861.0,8089.0,12.0,13.0,0.0,0.0,0.0,1.0,,0.0,0.001607120781307949,0.0,0.0,0.0,0.0,0.0,0.0,0.0,0.0,0.0,0.0
64,2980.0,8089.0,5.428859060402685,0.0018223763210482328,0.001658907010682835,0.874045958503072,-0.11001990972445658,0.0,3.0,-0.11001990972445658,10.110980022195893,8.646152841578546,0.0009097563172830053,293.0,274.0,4.699658703071672,0.1386861313868613,0.309255079006772,2861.0,8089.0,12.0,13.0,0.0,0.0,0.0,1.0,,0.0,0.001607120781307949,0.0,0.0,0.0,0.0,0.0,0.0,0.0,0.0,0.0,0.0
837,2980.0,8089.0,5.428859060402685,0.0018223763210482328,0.001658907010682835,0.874045958503072,-0.11001990972445658,0.0,3.0,-0.11001990972445658,10.110980022195893,8.646152841578546,0.0009097563172830053,293.0,274.0,4.699658703071672,0.1386861313868613,0.309255079006772,2861.0,8089.0,12.0,13.0,0.0,0.0,0.0,1.0,,0.0,0.001607120781307949,0.0,0.0,0.0,0.0,0.0,0.0,0.0,0.0,0.0,0.0
839,2980.0,8089.0,5.428859060402685,0.0018223763210482328,0.001658907010682835,0.874045958503072,-0.11001990972445658,0.0,3.0,-0.11001990972445658,10.110980022195893,8.646152841578546,0.0009097563172830053,293.0,274.0,4.699658703071672,0.1386861313868613,0.309255079006772,2861.0,8089.0,12.0,13.0,0.0,0.0,0.0,1.0,,0.0,0.001607120781307949,0.0,0.0,0.0,0.0,0.0,0.0,0.0,0.0,0.0,0.0
136,2980.0,8089.0,5.428859060402685,0.0018223763210482328,0.001658907010682835,0.874045958503072,-0.11001990972445658,0.0,3.0,-0.11001990972445658,10.110980022195893,8.646152841578546,0.0009097563172830053,293.0,274.0,4.699658703071672,0.1386861313868613,0.309255079006772,2861.0,8089.0,12.0,13.0,0.0,0.0,0.0,1.0,,0.0,0.001607120781307949,0.0,0.0,0.0,0.0,0.0,0.0,0.0,0.0,0.0,0.0
137,2980.0,8089.0,5.428859060402685,0.0018223763210482328,0.001658907010682835,0.874045958503072,-0.11001990972445658,0.0,3.0,-0.11001990972445658,10.110980022195893,8.646152841578546,0.0009097563172830053,293.0,274.0,4.699658703071672,0.1386861313868613,0.309255079006772,2861.0,8089.0,12.0,13.0,0.0,0.0,0.0,1.0,,0.0,0.001607120781307949,0.0,0.0,0.0,0.0,0.0,0.0,0.0,0.0,0.0,0.0
138,2980.0,8089.0,5.428859060402685,0.0018223763210482328,0.001658907010682835,0.874045958503072,-0.11001990972445658,0.0,3.0,-0.11001990972445658,10.110980022195893,8.646152841578546,0.0009097563172830053,293.0,274.0,4.699658703071672,0.1386861313868613,0.309255079006772,2861.0,8089.0,12.0,13.0,0.0,0.0,0.0,1.0,,0.0,0.001607120781307949,0.0,0.0,0.0,0.0,0.0,0.0,0.0,0.0,0.0,0.0
294,2980.0,8089.0,5.428859060402685,0.0018223763210482328,0.001658907010682835,0.874045958503072,-0.11001990972445658,0.0,3.0,-0.11001990972445658,10.110980022195893,8.646152841578546,0.0009097563172830053,293.0,274.0,4.699658703071672,0.1386861313868613,0.309255079006772,2861.0,8089.0,12.0,13.0,0.0,0.0,0.0,1.0,,0.0,0.001607120781307949,0.0,0.0,0.0,0.0,0.0,0.0,0.0,0.0,0.0,0.0
296,2980.0,8089.0,5.428859060402685,0.0018223763210482328,0.001658907010682835,0.874045958503072,-0.11001990972445658,0.0,3.0,-0.11001990972445658,10.110980022195893,8.646152841578546,0.0009097563172830053,293.0,274.0,4.699658703071672,0.1386861313868613,0.309255079006772,2861.0,8089.0,12.0,13.0,0.0,0.0,0.0,1.0,,0.0,0.001607120781307949,0.0,0.0,0.0,0.0,0.0,0.0,0.0,0.0,0.0,0.0
297,2980.0,8089.0,5.428859060402685,0.0018223763210482328,0.001658907010682835,0.874045958503072,-0.11001990972445658,0.0,3.0,-0.11001990972445658,10.110980022195893,8.646152841578546,0.0009097563172830053,293.0,274.0,4.699658703071672,0.1386861313868613,0.309255079006772,2861.0,8089.0,12.0,13.0,0.0,0.0,0.0,1.0,,0.0,0.001607120781307949,0.0,0.0,0.0,0.0,0.0,0.0,0.0,0.0,0.0,0.0
298,2980.0,8089.0,5.428859060402685,0.0018223763210482328,0.001658907010682835,0.874045958503072,-0.11001990972445658,0.0,3.0,-0.11001990972445658,10.110980022195893,8.646152841578546,0.0009097563172830053,293.0,274.0,4.699658703071672,0.1386861313868613,0.309255079006772,2861.0,8089.0,12.0,13.0,0.0,0.0,0.0,1.0,,0.0,0.001607120781307949,0.0,0.0,0.0,0.0,0.0,0.0,0.0,0.0,0.0,0.0
299,2980.0,8089.0,5.428859060402685,0.0018223763210482328,0.001658907010682835,0.874045958503072,-0.11001990972445658,0.0,3.0,-0.11001990972445658,10.110980022195893,8.646152841578546,0.0009097563172830053,293.0,274.0,4.699658703071672,0.1386861313868613,0.309255079006772,2861.0,8089.0,12.0,13.0,0.0,0.0,0.0,1.0,,0.0,0.001607120781307949,0.0,0.0,0.0,0.0,0.0,0.0,0.0,0.0,0.0,0.0
304,2980.0,8089.0,5.428859060402685,0.0018223763210482328,0.001658907010682835,0.874045958503072,-0.11001990972445658,0.0,3.0,-0.11001990972445658,10.110980022195893,8.646152841578546,0.0009097563172830053,293.0,274.0,4.699658703071672,0.1386861313868613,0.309255079006772,2861.0,8089.0,12.0,13.0,0.0,0.0,0.0,1.0,,0.0,0.001607120781307949,0.0,0.0,0.0,0.0,0.0,0.0,0.0,0.0,0.0,0.0
483,2980.0,8089.0,5.428859060402685,0.0018223763210482328,0.001658907010682835,0.874045958503072,-0.11001990972445658,0.0,3.0,-0.11001990972445658,10.110980022195893,8.646152841578546,0.0009097563172830053,293.0,274.0,4.699658703071672,0.1386861313868613,0.309255079006772,2861.0,8089.0,12.0,13.0,0.0,0.0,0.0,1.0,,0.0,0.001607120781307949,0.0,0.0,0.0,0.0,0.0,0.0,0.0,0.0,0.0,0.0
484,2980.0,8089.0,5.428859060402685,0.0018223763210482328,0.001658907010682835,0.874045958503072,-0.11001990972445658,0.0,3.0,-0.11001990972445658,10.110980022195893,8.646152841578546,0.0009097563172830053,293.0,274.0,4.699658703071672,0.1386861313868613,0.309255079006772,2861.0,8089.0,12.0,13.0,0.0,0.0,0.0,1.0,,0.0,0.001607120781307949,0.0,0.0,0.0,0.0,0.0,0.0,0.0,0.0,0.0,0.0
485,2980.0,8089.0,5.428859060402685,0.0018223763210482328,0.001658907010682835,0.874045958503072,-0.11001990972445658,0.0,3.0,-0.11001990972445658,10.110980022195893,8.646152841578546,0.0009097563172830053,293.0,274.0,4.699658703071672,0.1386861313868613,0.309255079006772,2861.0,8089.0,12.0,13.0,0.0,0.0,0.0,1.0,,0.0,0.001607120781307949,0.0,0.0,0.0,0.0,0.0,0.0,0.0,0.0,0.0,0.0
486,3000.0,8126.0,5.417333333333334,0.0018063799044125818,0.0016496340492349456,0.8757316838590832,-0.10925670140911074,0.0,3.0,-0.10925670140911074,10.123080584528033,8.664002115450748,0.0009017777777777778,293.0,274.0,4.7406143344709895,0.1386861313868613,0.309255079006772,2876.0,8126.0,14.0,15.0,0.0,0.0,0.0,1.0,0.0,0.0,0.0018459266551809008,0.0,0.0,0.0,0.0,0.0,0.0,0.0,0.0,0.0,0.0
487,3000.0,8126.0,5.417333333333334,0.0018063799044125818,0.0016496340492349456,0.8757316838590832,-0.10925670140911074,0.0,3.0,-0.10925670140911074,10.123080584528033,8.664002115450748,0.0009017777777777778,293.0,274.0,4.7406143344709895,0.1386861313868613,0.309255079006772,2876.0,8126.0,14.0,15.0,0.0,0.0,0.0,1.0,,0.0,0.0018459266551809008,0.0,0.0,0.0,0.0,0.0,0.0,0.0,0.0,0.0,0.0
488,3008.0,8140.0,5.412234042553192,0.001799878298155368,0.0016467051042750426,0.8781676811537843,-0.10866004093324236,0.0,3.0,-0.10866004093324236,10.127357340822531,8.669548952306943,0.0008985347583748303,293.0,274.0,4.764505119453925,0.1386861313868613,0.309255079006772,2885.0,8140.0,15.0,16.0,0.0,0.0,0.0,1.0,0.0,0.0,0.0019656019656019656,0.0,0.0,0.0,0.0,0.0,0.0,0.0,0.0,0.0,0.0
267,3008.0,8140.0,5.412234042553192,0.001799878298155368,0.0016467051042750426,0.8781676811537843,-0.10866004093324236,0.0,3.0,-0.10866004093324236,10.127357340822531,8.669548952306943,0.0008985347583748303,293.0,274.0,4.764505119453925,0.1386861313868613,0.309255079006772,2885.0,8140.0,15.0,16.0,0.0,0.0,0.0,1.0,,0.0,0.0019656019656019656,0.0,0.0,0.0,0.0,0.0,0.0,0.0,0.0,0.0,0.0
268,3008.0,8140.0,5.412234042553192,0.001799878298155368,0.0016467051042750426,0.8781676811537843,-0.10866004093324236,0.0,3.0,-0.10866004093324236,10.127357340822531,8.669548952306943,0.0008985347583748303,293.0,274.0,4.764505119453925,0.1386861313868613,0.309255079006772,2885.0,8140.0,15.0,16.0,0.0,0.0,0.0,1.0,,0.0,0.0019656019656019656,0.0,0.0,0.0,0.0,0.0,0.0,0.0,0.0,0.0,0.0
269,3008.0,8140.0,5.412234042553192,0.001799878298155368,0.0016467051042750426,0.8781676811537843,-0.10866004093324236,0.0,3.0,-0.10866004093324236,10.127357340822531,8.669548952306943,0.0008985347583748303,293.0,274.0,4.764505119453925,0.1386861313868613,0.309255079006772,2885.0,8140.0,15.0,16.0,0.0,0.0,0.0,1.0,,0.0,0.0019656019656019656,0.0,0.0,0.0,0.0,0.0,0.0,0.0,0.0,0.0,0.0
270,3008.0,8140.0,5.412234042553192,0.001799878298155368,0.0016467051042750426,0.8781676811537843,-0.10866004093324236,0.0,3.0,-0.10866004093324236,10.127357340822531,8.669548952306943,0.0008985347583748303,293.0,274.0,4.764505119453925,0.1386861313868613,0.309255079006772,2885.0,8140.0,15.0,16.0,0.0,0.0,0.0,1.0,,0.0,0.0019656019656019656,0.0,0.0,0.0,0.0,0.0,0.0,0.0,0.0,0.0,0.0
271,3008.0,8140.0,5.412234042553192,0.001799878298155368,0.0016467051042750426,0.8781676811537843,-0.10866004093324236,0.0,3.0,-0.10866004093324236,10.127357340822531,8.669548952306943,0.0008985347583748303,293.0,274.0,4.764505119453925,0.1386861313868613,0.309255079006772,2885.0,8140.0,15.0,16.0,0.0,0.0,0.0,1.0,,0.0,0.0019656019656019656,0.0,0.0,0.0,0.0,0.0,0.0,0.0,0.0,0.0,0.0
272,3008.0,8140.0,5.412234042553192,0.001799878298155368,0.0016467051042750426,0.8781676811537843,-0.10866004093324236,0.0,3.0,-0.10866004093324236,10.127357340822531,8.669548952306943,0.0008985347583748303,293.0,274.0,4.764505119453925,0.1386861313868613,0.309255079006772,2885.0,8140.0,15.0,16.0,0.0,0.0,0.0,1.0,,0.0,0.0019656019656019656,0.0,0.0,0.0,0.0,0.0,0.0,0.0,0.0,0.0,0.0
273,3028.0,8178.0,5.401585204755614,0.0017844681878941575,0.0016378855597081437,0.8794941039680797,-0.10798198677748387,0.0,3.0,-0.10798198677748387,10.139530897013538,8.686400335805478,0.0008908487755846359,293.0,274.0,4.805460750853243,0.1386861313868613,0.309255079006772,2900.0,8178.0,17.0,18.0,0.0,0.0,0.0,1.0,0.0,0.0,0.0022010271460014674,0.0,0.0,0.0,0.0,0.0,0.0,0.0,0.0,0.0,0.0
685,3028.0,8178.0,5.401585204755614,0.0017844681878941575,0.0016378855597081437,0.8794941039680797,-0.10798198677748387,0.0,3.0,-0.10798198677748387,10.139530897013538,8.686400335805478,0.0008908487755846359,293.0,274.0,4.805460750853243,0.1386861313868613,0.309255079006772,2900.0,8178.0,17.0,18.0,0.0,0.0,0.0,1.0,,0.0,0.0022010271460014674,0.0,0.0,0.0,0.0,0.0,0.0,0.0,0.0,0.0,0.0
686,3028.0,8178.0,5.401585204755614,0.0017844681878941575,0.0016378855597081437,0.8794941039680797,-0.10798198677748387,0.0,3.0,-0.10798198677748387,10.139530897013538,8.686400335805478,0.0008908487755846359,293.0,274.0,4.805460750853243,0.1386861313868613,0.309255079006772,2900.0,8178.0,17.0,18.0,0.0,0.0,0.0,1.0,,0.0,0.0022010271460014674,0.0,0.0,0.0,0.0,0.0,0.0,0.0,0.0,0.0,0.0
687,3028.0,8178.0,5.401585204755614,0.0017844681878941575,0.0016378855597081437,0.8794941039680797,-0.10798198677748387,0.0,3.0,-0.10798198677748387,10.139530897013538,8.686400335805478,0.0008908487755846359,293.0,274.0,4.805460750853243,0.1386861313868613,0.309255079006772,2900.0,8178.0,17.0,18.0,0.0,0.0,0.0,1.0,,0.0,0.0022010271460014674,0.0,0.0,0.0,0.0,0.0,0.0,0.0,0.0,0.0,0.0
688,3028.0,8178.0,5.401585204755614,0.0017844681878941575,0.0016378855597081437,0.8794941039680797,-0.10798198677748387,0.0,3.0,-0.10798198677748387,10.139530897013538,8.686400335805478,0.0008908487755846359,293.0,274.0,4.805460750853243,0.1386861313868613,0.309255079006772,2900.0,8178.0,17.0,18.0,0.0,0.0,0.0,1.0,,0.0,0.0022010271460014674,0.0,0.0,0.0,0.0,0.0,0.0,0.0,0.0,0.0,0.0
689,3028.0,8178.0,5.401585204755614,0.0017844681878941575,0.0016378855597081437,0.8794941039680797,-0.10798198677748387,0.0,3.0,-0.10798198677748387,10.139530897013538,8.686400335805478,0.0008908487755846359,293.0,274.0,4.805460750853243,0.1386861313868613,0.309255079006772,2900.0,8178.0,17.0,18.0,0.0,0.0,0.0,1.0,,0.0,0.0022010271460014674,0.0,0.0,0.0,0.0,0.0,0.0,0.0,0.0,0.0,0.0
690,3028.0,8178.0,5.401585204755614,0.0017844681878941575,0.0016378855597081437,0.8794941039680797,-0.10798198677748387,0.0,3.0,-0.10798198677748387,10.139530897013538,8.686400335805478,0.0008908487755846359,293.0,274.0,4.805460750853243,0.1386861313868613,0.309255079006772,2900.0,8178.0,17.0,18.0,0.0,0.0,0.0,1.0,,0.0,0.0022010271460014674,0.0,0.0,0.0,0.0,0.0,0.0,0.0,0.0,0.0,0.0
691,3028.0,8178.0,5.401585204755614,0.0017844681878941575,0.0016378855597081437,0.8794941039680797,-0.10798198677748387,0.0,3.0,-0.10798198677748387,10.139530897013538,8.686400335805478,0.0008908487755846359,293.0,274.0,4.805460750853243,0.1386861313868613,0.309255079006772,2900.0,8178.0,17.0,18.0,0.0,0.0,0.0,1.0,,0.0,0.0022010271460014674,0.0,0.0,0.0,0.0,0.0,0.0,0.0,0.0,0.0,0.0
692,3028.0,8178.0,5.401585204755614,0.0017844681878941575,0.0016378855597081437,0.8794941039680797,-0.10798198677748387,0.0,3.0,-0.10798198677748387,10.139530897013538,8.686400335805478,0.0008908487755846359,293.0,274.0,4.805460750853243,0.1386861313868613,0.309255079006772,2900.0,8178.0,17.0,18.0,0.0,0.0,0.0,1.0,,0.0,0.0022010271460014674,0.0,0.0,0.0,0.0,0.0,0.0,0.0,0.0,0.0,0.0
693,3028.0,8178.0,5.401585204755614,0.0017844681878941575,0.0016378855597081437,0.8794941039680797,-0.10798198677748387,0.0,3.0,-0.10798198677748387,10.139530897013538,8.686400335805478,0.0008908487755846359,293.0,274.0,4.805460750853243,0.1386861313868613,0.309255079006772,2900.0,8178.0,17.0,18.0,0.0,0.0,0.0,1.0,,0.0,0.0022010271460014674,0.0,0.0,0.0,0.0,0.0,0.0,0.0,0.0,0.0,0.0
694,3028.0,8178.0,5.401585204755614,0.0017844681878941575,0.0016378855597081437,0.8794941039680797,-0.10798198677748387,0.0,3.0,-0.10798198677748387,10.139530897013538,8.686400335805478,0.0008908487755846359,293.0,274.0,4.805460750853243,0.1386861313868613,0.309255079006772,2900.0,8178.0,17.0,18.0,0.0,0.0,0.0,1.0,,0.0,0.0022010271460014674,0.0,0.0,0.0,0.0,0.0,0.0,0.0,0.0,0.0,0.0
695,3042.0,8205.0,5.394477317554241,0.0017739155927504904,0.0016321052791726056,0.8813597113916635,-0.10738364625423569,0.0,3.0,-0.10738364625423569,10.14753609287771,8.695183306450582,0.0008855855844173247,293.0,274.0,4.839590443686006,0.1386861313868613,0.309255079006772,2912.0,8205.0,19.0,20.0,0.0,0.0,0.0,1.0,0.0,0.0,0.002437538086532602,0.0,0.0,0.0,0.0,0.0,0.0,0.0,0.0,0.0,0.0
821,3042.0,8205.0,5.394477317554241,0.0017739155927504904,0.0016321052791726056,0.8813597113916635,-0.10738364625423569,0.0,3.0,-0.10738364625423569,10.14753609287771,8.695183306450582,0.0008855855844173247,293.0,274.0,4.839590443686006,0.1386861313868613,0.309255079006772,2912.0,8205.0,19.0,20.0,0.0,0.0,0.0,1.0,,0.0,0.002437538086532602,0.0,0.0,0.0,0.0,0.0,0.0,0.0,0.0,0.0,0.0
823,3042.0,8205.0,5.394477317554241,0.0017739155927504904,0.0016321052791726056,0.8813597113916635,-0.10738364625423569,0.0,3.0,-0.10738364625423569,10.14753609287771,8.695183306450582,0.0008855855844173247,293.0,274.0,4.839590443686006,0.1386861313868613,0.309255079006772,2912.0,8205.0,19.0,20.0,0.0,0.0,0.0,1.0,,0.0,0.002437538086532602,0.0,0.0,0.0,0.0,0.0,0.0,0.0,0.0,0.0,0.0
733,3042.0,8205.0,5.394477317554241,0.0017739155927504904,0.0016321052791726056,0.8813597113916635,-0.10738364625423569,0.0,3.0,-0.10738364625423569,10.14753609287771,8.695183306450582,0.0008855855844173247,293.0,274.0,4.839590443686006,0.1386861313868613,0.309255079006772,2912.0,8205.0,19.0,20.0,0.0,0.0,0.0,1.0,,0.0,0.002437538086532602,0.0,0.0,0.0,0.0,0.0,0.0,0.0,0.0,0.0,0.0
734,3042.0,8205.0,5.394477317554241,0.0017739155927504904,0.0016321052791726056,0.8813597113916635,-0.10738364625423569,0.0,3.0,-0.10738364625423569,10.14753609287771,8.695183306450582,0.0008855855844173247,293.0,274.0,4.839590443686006,0.1386861313868613,0.309255079006772,2912.0,8205.0,19.0,20.0,0.0,0.0,0.0,1.0,,0.0,0.002437538086532602,0.0,0.0,0.0,0.0,0.0,0.0,0.0,0.0,0.0,0.0
735,3042.0,8205.0,5.394477317554241,0.0017739155927504904,0.0016321052791726056,0.8813597113916635,-0.10738364625423569,0.0,3.0,-0.10738364625423569,10.14753609287771,8.695183306450582,0.0008855855844173247,293.0,274.0,4.839590443686006,0.1386861313868613,0.309255079006772,2912.0,8205.0,19.0,20.0,0.0,0.0,0.0,1.0,,0.0,0.002437538086532602,0.0,0.0,0.0,0.0,0.0,0.0,0.0,0.0,0.0,0.0
736,3042.0,8205.0,5.394477317554241,0.0017739155927504904,0.0016321052791726056,0.8813597113916635,-0.10738364625423569,0.0,3.0,-0.10738364625423569,10.14753609287771,8.695183306450582,0.0008855855844173247,293.0,274.0,4.839590443686006,0.1386861313868613,0.309255079006772,2912.0,8205.0,19.0,20.0,0.0,0.0,0.0,1.0,,0.0,0.002437538086532602,0.0,0.0,0.0,0.0,0.0,0.0,0.0,0.0,0.0,0.0
737,3042.0,8205.0,5.394477317554241,0.0017739155927504904,0.0016321052791726056,0.8813597113916635,-0.10738364625423569,0.0,3.0,-0.10738364625423569,10.14753609287771,8.695183306450582,0.0008855855844173247,293.0,274.0,4.839590443686006,0.1386861313868613,0.309255079006772,2912.0,8205.0,19.0,20.0,0.0,0.0,0.0,1.0,,0.0,0.002437538086532602,0.0,0.0,0.0,0.0,0.0,0.0,0.0,0.0,0.0,0.0
738,3042.0,8205.0,5.394477317554241,0.0017739155927504904,0.0016321052791726056,0.8813597113916635,-0.10738364625423569,0.0,3.0,-0.10738364625423569,10.14753609287771,8.695183306450582,0.0008855855844173247,293.0,274.0,4.839590443686006,0.1386861313868613,0.309255079006772,2912.0,8205.0,19.0,20.0,0.0,0.0,0.0,1.0,,0.0,0.002437538086532602,0.0,0.0,0.0,0.0,0.0,0.0,0.0,0.0,0.0,0.0
739,3042.0,8205.0,5.394477317554241,0.0017739155927504904,0.0016321052791726056,0.8813597113916635,-0.10738364625423569,0.0,3.0,-0.10738364625423569,10.14753609287771,8.695183306450582,0.0008855855844173247,293.0,274.0,4.839590443686006,0.1386861313868613,0.309255079006772,2912.0,8205.0,19.0,20.0,0.0,0.0,0.0,1.0,,0.0,0.002437538086532602,0.0,0.0,0.0,0.0,0.0,0.0,0.0,0.0,0.0,0.0
740,3042.0,8205.0,5.394477317554241,0.0017739155927504904,0.0016321052791726056,0.8813597113916635,-0.10738364625423569,0.0,3.0,-0.10738364625423569,10.14753609287771,8.695183306450582,0.0008855855844173247,293.0,274.0,4.839590443686006,0.1386861313868613,0.309255079006772,2912.0,8205.0,19.0,20.0,0.0,0.0,0.0,1.0,,0.0,0.002437538086532602,0.0,0.0,0.0,0.0,0.0,0.0,0.0,0.0,0.0,0.0
741,3042.0,8205.0,5.394477317554241,0.0017739155927504904,0.0016321052791726056,0.8813597113916635,-0.10738364625423569,0.0,3.0,-0.10738364625423569,10.14753609287771,8.695183306450582,0.0008855855844173247,293.0,274.0,4.839590443686006,0.1386861313868613,0.309255079006772,2912.0,8205.0,19.0,20.0,0.0,0.0,0.0,1.0,,0.0,0.002437538086532602,0.0,0.0,0.0,0.0,0.0,0.0,0.0,0.0,0.0,0.0
742,3089.0,8286.0,5.364842991259307,0.0017373196215217965,0.0016100061959438104,0.8878442874581425,-0.10429905133700768,0.0,3.0,-0.10429905133700768,10.172284124210824,8.718363515003862,0.0008673305930744973,293.0,274.0,4.945392491467577,0.1386861313868613,0.309255079006772,2946.0,8286.0,27.0,28.0,0.0,0.0,0.0,1.0,0.0,0.0,0.0033791938209027277,0.0,0.0,0.0,0.0,0.0,0.0,0.0,0.0,0.0,0.0
743,3089.0,8286.0,5.364842991259307,0.0017373196215217965,0.0016100061959438104,0.8878442874581425,-0.10429905133700768,0.0,3.0,-0.10429905133700768,10.172284124210824,8.718363515003862,0.0008673305930744973,293.0,274.0,4.945392491467577,0.1386861313868613,0.309255079006772,2946.0,8286.0,27.0,28.0,0.0,0.0,0.0,1.0,,0.0,0.0033791938209027277,0.0,0.0,0.0,0.0,0.0,0.0,0.0,0.0,0.0,0.0
744,3089.0,8286.0,5.364842991259307,0.0017373196215217965,0.0016100061959438104,0.8878442874581425,-0.10429905133700768,0.0,3.0,-0.10429905133700768,10.172284124210824,8.718363515003862,0.0008673305930744973,293.0,274.0,4.945392491467577,0.1386861313868613,0.309255079006772,2946.0,8286.0,27.0,28.0,0.0,0.0,0.0,1.0,,0.0,0.0033791938209027277,0.0,0.0,0.0,0.0,0.0,0.0,0.0,0.0,0.0,0.0
745,3089.0,8286.0,5.364842991259307,0.0017373196215217965,0.0016100061959438104,0.8878442874581425,-0.10429905133700768,0.0,3.0,-0.10429905133700768,10.172284124210824,8.718363515003862,0.0008673305930744973,293.0,274.0,4.945392491467577,0.1386861313868613,0.309255079006772,2946.0,8286.0,27.0,28.0,0.0,0.0,0.0,1.0,,0.0,0.0033791938209027277,0.0,0.0,0.0,0.0,0.0,0.0,0.0,0.0,0.0,0.0
746,3089.0,8286.0,5.364842991259307,0.0017373196215217965,0.0016100061959438104,0.8878442874581425,-0.10429905133700768,0.0,3.0,-0.10429905133700768,10.172284124210824,8.718363515003862,0.0008673305930744973,293.0,274.0,4.945392491467577,0.1386861313868613,0.309255079006772,2946.0,8286.0,27.0,28.0,0.0,0.0,0.0,1.0,,0.0,0.0033791938209027277,0.0,0.0,0.0,0.0,0.0,0.0,0.0,0.0,0.0,0.0
747,3089.0,8286.0,5.364842991259307,0.0017373196215217965,0.0016100061959438104,0.8878442874581425,-0.10429905133700768,0.0,3.0,-0.10429905133700768,10.172284124210824,8.718363515003862,0.0008673305930744973,293.0,274.0,4.945392491467577,0.1386861313868613,0.309255079006772,2946.0,8286.0,27.0,28.0,0.0,0.0,0.0,1.0,,0.0,0.0033791938209027277,0.0,0.0,0.0,0.0,0.0,0.0,0.0,0.0,0.0,0.0
748,3107.0,8319.0,5.355004827808175,0.0017240839754694703,0.0016030088513424787,0.8936441966880327,-0.10526624770260737,0.0,3.0,-0.10526624770260737,10.180363858920495,8.726992932274001,0.0008607286369876714,293.0,274.0,4.989761092150171,0.1386861313868613,0.309255079006772,2961.0,8319.0,30.0,32.0,0.0,0.0,0.0,1.0,0.0,0.0,0.0038466161798293066,0.0,0.0,0.0,0.0,0.0,0.0,0.0,0.0,0.0,0.0
749,3107.0,8319.0,5.355004827808175,0.0017240839754694703,0.0016030088513424787,0.8936441966880327,-0.10526624770260737,0.0,3.0,-0.10526624770260737,10.180363858920495,8.726992932274001,0.0008607286369876714,293.0,274.0,4.989761092150171,0.1386861313868613,0.309255079006772,2961.0,8319.0,30.0,32.0,0.0,0.0,0.0,1.0,,0.0,0.0038466161798293066,0.0,0.0,0.0,0.0,0.0,0.0,0.0,0.0,0.0,0.0
750,3107.0,8319.0,5.355004827808175,0.0017240839754694703,0.0016030088513424787,0.8936441966880327,-0.10526624770260737,0.0,3.0,-0.10526624770260737,10.180363858920495,8.726992932274001,0.0008607286369876714,293.0,274.0,4.989761092150171,0.1386861313868613,0.309255079006772,2961.0,8319.0,30.0,32.0,0.0,0.0,0.0,1.0,,0.0,0.0038466161798293066,0.0,0.0,0.0,0.0,0.0,0.0,0.0,0.0,0.0,0.0
960,3107.0,8319.0,5.355004827808175,0.0017240839754694703,0.0016030088513424787,0.8936441966880327,-0.10526624770260737,0.0,3.0,-0.10526624770260737,10.180363858920495,8.726992932274001,0.0008607286369876714,293.0,274.0,4.989761092150171,0.1386861313868613,0.309255079006772,2961.0,8319.0,30.0,32.0,0.0,0.0,0.0,1.0,,0.0,0.0038466161798293066,0.0,0.0,0.0,0.0,0.0,0.0,0.0,0.0,0.0,0.0
962,3107.0,8319.0,5.355004827808175,0.0017240839754694703,0.0016030088513424787,0.8936441966880327,-0.10526624770260737,0.0,3.0,-0.10526624770260737,10.180363858920495,8.726992932274001,0.0008607286369876714,293.0,274.0,4.989761092150171,0.1386861313868613,0.309255079006772,2961.0,8319.0,30.0,32.0,0.0,0.0,0.0,1.0,,0.0,0.0038466161798293066,0.0,0.0,0.0,0.0,0.0,0.0,0.0,0.0,0.0,0.0
870,3107.0,8319.0,5.355004827808175,0.0017240839754694703,0.0016030088513424787,0.8936441966880327,-0.10526624770260737,0.0,3.0,-0.10526624770260737,10.180363858920495,8.726992932274001,0.0008607286369876714,293.0,274.0,4.989761092150171,0.1386861313868613,0.309255079006772,2961.0,8319.0,30.0,32.0,0.0,0.0,0.0,1.0,,0.0,0.0038466161798293066,0.0,0.0,0.0,0.0,0.0,0.0,0.0,0.0,0.0,0.0
873,3107.0,8319.0,5.355004827808175,0.0017240839754694703,0.0016030088513424787,0.8936441966880327,-0.10526624770260737,0.0,3.0,-0.10526624770260737,10.180363858920495,8.726992932274001,0.0008607286369876714,293.0,274.0,4.989761092150171,0.1386861313868613,0.309255079006772,2961.0,8319.0,30.0,32.0,0.0,0.0,0.0,1.0,,0.0,0.0038466161798293066,0.0,0.0,0.0,0.0,0.0,0.0,0.0,0.0,0.0,0.0
876,3107.0,8319.0,5.355004827808175,0.0017240839754694703,0.0016030088513424787,0.8936441966880327,-0.10526624770260737,0.0,3.0,-0.10526624770260737,10.180363858920495,8.726992932274001,0.0008607286369876714,293.0,274.0,4.989761092150171,0.1386861313868613,0.309255079006772,2961.0,8319.0,30.0,32.0,0.0,0.0,0.0,1.0,,0.0,0.0038466161798293066,0.0,0.0,0.0,0.0,0.0,0.0,0.0,0.0,0.0,0.0
878,3107.0,8319.0,5.355004827808175,0.0017240839754694703,0.0016030088513424787,0.8936441966880327,-0.10526624770260737,0.0,3.0,-0.10526624770260737,10.180363858920495,8.726992932274001,0.0008607286369876714,293.0,274.0,4.989761092150171,0.1386861313868613,0.309255079006772,2961.0,8319.0,30.0,32.0,0.0,0.0,0.0,1.0,,0.0,0.0038466161798293066,0.0,0.0,0.0,0.0,0.0,0.0,0.0,0.0,0.0,0.0
880,3107.0,8319.0,5.355004827808175,0.0017240839754694703,0.0016030088513424787,0.8936441966880327,-0.10526624770260737,0.0,3.0,-0.10526624770260737,10.180363858920495,8.726992932274001,0.0008607286369876714,293.0,274.0,4.989761092150171,0.1386861313868613,0.309255079006772,2961.0,8319.0,30.0,32.0,0.0,0.0,0.0,1.0,,0.0,0.0038466161798293066,0.0,0.0,0.0,0.0,0.0,0.0,0.0,0.0,0.0,0.0
882,3107.0,8319.0,5.355004827808175,0.0017240839754694703,0.0016030088513424787,0.8936441966880327,-0.10526624770260737,0.0,3.0,-0.10526624770260737,10.180363858920495,8.726992932274001,0.0008607286369876714,293.0,274.0,4.989761092150171,0.1386861313868613,0.309255079006772,2961.0,8319.0,30.0,32.0,0.0,0.0,0.0,1.0,,0.0,0.0038466161798293066,0.0,0.0,0.0,0.0,0.0,0.0,0.0,0.0,0.0,0.0
628,3107.0,8319.0,5.355004827808175,0.0017240839754694703,0.0016030088513424787,0.8936441966880327,-0.10526624770260737,0.0,3.0,-0.10526624770260737,10.180363858920495,8.726992932274001,0.0008607286369876714,293.0,274.0,4.989761092150171,0.1386861313868613,0.309255079006772,2961.0,8319.0,30.0,32.0,0.0,0.0,0.0,1.0,,0.0,0.0038466161798293066,0.0,0.0,0.0,0.0,0.0,0.0,0.0,0.0,0.0,0.0
629,3107.0,8319.0,5.355004827808175,0.0017240839754694703,0.0016030088513424787,0.8936441966880327,-0.10526624770260737,0.0,3.0,-0.10526624770260737,10.180363858920495,8.726992932274001,0.0008607286369876714,293.0,274.0,4.989761092150171,0.1386861313868613,0.309255079006772,2961.0,8319.0,30.0,32.0,0.0,0.0,0.0,1.0,,0.0,0.0038466161798293066,0.0,0.0,0.0,0.0,0.0,0.0,0.0,0.0,0.0,0.0
630,3107.0,8319.0,5.355004827808175,0.0017240839754694703,0.0016030088513424787,0.8936441966880327,-0.10526624770260737,0.0,3.0,-0.10526624770260737,10.180363858920495,8.726992932274001,0.0008607286369876714,293.0,274.0,4.989761092150171,0.1386861313868613,0.309255079006772,2961.0,8319.0,30.0,32.0,0.0,0.0,0.0,1.0,,0.0,0.0038466161798293066,0.0,0.0,0.0,0.0,0.0,0.0,0.0,0.0,0.0,0.0
631,3107.0,8319.0,5.355004827808175,0.0017240839754694703,0.0016030088513424787,0.8936441966880327,-0.10526624770260737,0.0,3.0,-0.10526624770260737,10.180363858920495,8.726992932274001,0.0008607286369876714,293.0,274.0,4.989761092150171,0.1386861313868613,0.309255079006772,2961.0,8319.0,30.0,32.0,0.0,0.0,0.0,1.0,,0.0,0.0038466161798293066,0.0,0.0,0.0,0.0,0.0,0.0,0.0,0.0,0.0,0.0
632,3107.0,8319.0,5.355004827808175,0.0017240839754694703,0.0016030088513424787,0.8936441966880327,-0.10526624770260737,0.0,3.0,-0.10526624770260737,10.180363858920495,8.726992932274001,0.0008607286369876714,293.0,274.0,4.989761092150171,0.1386861313868613,0.309255079006772,2961.0,8319.0,30.0,32.0,0.0,0.0,0.0,1.0,,0.0,0.0038466161798293066,0.0,0.0,0.0,0.0,0.0,0.0,0.0,0.0,0.0,0.0
633,3120.0,8342.0,5.347435897435897,0.001714471272021769,0.001597241842232308,0.893351692632846,-0.10530059201288015,0.0,3.0,-0.10530059201288015,10.187435724968866,8.73791330266553,0.0008559335963182117,293.0,274.0,5.010238907849829,0.1386861313868613,0.309255079006772,2970.0,8342.0,30.0,32.0,0.0,0.0,0.0,1.0,0.0,0.0,0.0038360105490290097,0.0,0.0,0.0,0.0,0.0,0.0,0.0,0.0,0.0,0.0
634,3120.0,8342.0,5.347435897435897,0.001714471272021769,0.001597241842232308,0.893351692632846,-0.10530059201288015,0.0,3.0,-0.10530059201288015,10.187435724968866,8.73791330266553,0.0008559335963182117,293.0,274.0,5.010238907849829,0.1386861313868613,0.309255079006772,2970.0,8342.0,30.0,32.0,0.0,0.0,0.0,1.0,,0.0,0.0038360105490290097,0.0,0.0,0.0,0.0,0.0,0.0,0.0,0.0,0.0,0.0
635,3120.0,8342.0,5.347435897435897,0.001714471272021769,0.001597241842232308,0.893351692632846,-0.10530059201288015,0.0,3.0,-0.10530059201288015,10.187435724968866,8.73791330266553,0.0008559335963182117,293.0,274.0,5.010238907849829,0.1386861313868613,0.309255079006772,2970.0,8342.0,30.0,32.0,0.0,0.0,0.0,1.0,,0.0,0.0038360105490290097,0.0,0.0,0.0,0.0,0.0,0.0,0.0,0.0,0.0,0.0
636,3132.0,8363.0,5.340357598978288,0.001705639603634075,0.0015923762177624608,0.8953083543623769,-0.1052468167607261,0.0,3.0,-0.1052468167607261,10.193200910753173,8.743754218305028,0.0008515280815672765,293.0,274.0,5.037542662116041,0.1386861313868613,0.309255079006772,2980.0,8363.0,32.0,34.0,0.0,0.0,0.0,1.0,0.0,0.0,0.0040655267248595,0.0,0.0,0.0,0.0,0.0,0.0,0.0,0.0,0.0,0.0
637,3132.0,8363.0,5.340357598978288,0.001705639603634075,0.0015923762177624608,0.8953083543623769,-0.1052468167607261,0.0,3.0,-0.1052468167607261,10.193200910753173,8.743754218305028,0.0008515280815672765,293.0,274.0,5.037542662116041,0.1386861313868613,0.309255079006772,2980.0,8363.0,32.0,34.0,0.0,0.0,0.0,1.0,,0.0,0.0040655267248595,0.0,0.0,0.0,0.0,0.0,0.0,0.0,0.0,0.0,0.0
638,3132.0,8363.0,5.340357598978288,0.001705639603634075,0.0015923762177624608,0.8953083543623769,-0.1052468167607261,0.0,3.0,-0.1052468167607261,10.193200910753173,8.743754218305028,0.0008515280815672765,293.0,274.0,5.037542662116041,0.1386861313868613,0.309255079006772,2980.0,8363.0,32.0,34.0,0.0,0.0,0.0,1.0,,0.0,0.0040655267248595,0.0,0.0,0.0,0.0,0.0,0.0,0.0,0.0,0.0,0.0
974,3132.0,8363.0,5.340357598978288,0.001705639603634075,0.0015923762177624608,0.8953083543623769,-0.1052468167607261,0.0,3.0,-0.1052468167607261,10.193200910753173,8.743754218305028,0.0008515280815672765,293.0,274.0,5.037542662116041,0.1386861313868613,0.309255079006772,2980.0,8363.0,32.0,34.0,0.0,0.0,0.0,1.0,,0.0,0.0040655267248595,0.0,0.0,0.0,0.0,0.0,0.0,0.0,0.0,0.0,0.0
975,3161.0,8415.0,5.324264473267953,0.0016848938206544158,0.0015798797345029693,0.8992395577518001,-0.10519122225720826,0.0,3.0,-0.10519122225720826,10.207924975594011,8.758362924890948,0.000841179588989945,293.0,274.0,5.098976109215017,0.1386861313868613,0.309255079006772,3001.0,8415.0,36.0,38.0,0.0,0.0,0.0,1.0,0.0,0.0,0.004515745692216281,0.0,0.0,0.0,0.0,0.0,0.0,0.0,0.0,0.0,0.0
976,3161.0,8415.0,5.324264473267953,0.0016848938206544158,0.0015798797345029693,0.8992395577518001,-0.10519122225720826,0.0,3.0,-0.10519122225720826,10.207924975594011,8.758362924890948,0.000841179588989945,293.0,274.0,5.098976109215017,0.1386861313868613,0.309255079006772,3001.0,8415.0,36.0,38.0,0.0,0.0,0.0,1.0,,0.0,0.004515745692216281,0.0,0.0,0.0,0.0,0.0,0.0,0.0,0.0,0.0,0.0
977,3179.0,8449.0,5.315508021390374,0.0016725953497137745,0.0015731833331566704,0.9041765317503594,-0.10539200010026022,0.0,3.0,-0.10539200010026022,10.216175509377035,8.76320887332989,0.000835045098273399,293.0,274.0,5.146757679180888,0.1386861313868613,0.309255079006772,3017.0,8449.0,40.0,42.0,0.0,0.0,0.0,1.0,0.0,0.0,0.004971002485501243,0.0,0.0,0.0,0.0,0.0,0.0,0.0,0.0,0.0,0.0
978,3179.0,8449.0,5.315508021390374,0.0016725953497137745,0.0015731833331566704,0.9041765317503594,-0.10539200010026022,0.0,3.0,-0.10539200010026022,10.216175509377035,8.76320887332989,0.000835045098273399,293.0,274.0,5.146757679180888,0.1386861313868613,0.309255079006772,3017.0,8449.0,40.0,42.0,0.0,0.0,0.0,1.0,,0.0,0.004971002485501243,0.0,0.0,0.0,0.0,0.0,0.0,0.0,0.0,0.0,0.0
979,3179.0,8449.0,5.315508021390374,0.0016725953497137745,0.0015731833331566704,0.9041765317503594,-0.10539200010026022,0.0,3.0,-0.10539200010026022,10.216175509377035,8.76320887332989,0.000835045098273399,293.0,274.0,5.146757679180888,0.1386861313868613,0.309255079006772,3017.0,8449.0,40.0,42.0,0.0,0.0,0.0,1.0,,0.0,0.004971002485501243,0.0,0.0,0.0,0.0,0.0,0.0,0.0,0.0,0.0,0.0
980,3179.0,8449.0,5.315508021390374,0.0016725953497137745,0.0015731833331566704,0.9041765317503594,-0.10539200010026022,0.0,3.0,-0.10539200010026022,10.216175509377035,8.76320887332989,0.000835045098273399,293.0,274.0,5.146757679180888,0.1386861313868613,0.309255079006772,3017.0,8449.0,40.0,42.0,0.0,0.0,0.0,1.0,,0.0,0.004971002485501243,0.0,0.0,0.0,0.0,0.0,0.0,0.0,0.0,0.0,0.0
981,3179.0,8449.0,5.315508021390374,0.0016725953497137745,0.0015731833331566704,0.9041765317503594,-0.10539200010026022,0.0,3.0,-0.10539200010026022,10.216175509377035,8.76320887332989,0.000835045098273399,293.0,274.0,5.146757679180888,0.1386861313868613,0.309255079006772,3017.0,8449.0,40.0,42.0,0.0,0.0,0.0,1.0,,0.0,0.004971002485501243,0.0,0.0,0.0,0.0,0.0,0.0,0.0,0.0,0.0,0.0
982,3179.0,8449.0,5.315508021390374,0.0016725953497137745,0.0015731833331566704,0.9041765317503594,-0.10539200010026022,0.0,3.0,-0.10539200010026022,10.216175509377035,8.76320887332989,0.000835045098273399,293.0,274.0,5.146757679180888,0.1386861313868613,0.309255079006772,3017.0,8449.0,40.0,42.0,0.0,0.0,0.0,1.0,,0.0,0.004971002485501243,0.0,0.0,0.0,0.0,0.0,0.0,0.0,0.0,0.0,0.0
983,3179.0,8449.0,5.315508021390374,0.0016725953497137745,0.0015731833331566704,0.9041765317503594,-0.10539200010026022,0.0,3.0,-0.10539200010026022,10.216175509377035,8.76320887332989,0.000835045098273399,293.0,274.0,5.146757679180888,0.1386861313868613,0.309255079006772,3017.0,8449.0,40.0,42.0,0.0,0.0,0.0,1.0,,0.0,0.004971002485501243,0.0,0.0,0.0,0.0,0.0,0.0,0.0,0.0,0.0,0.0
984,3179.0,8449.0,5.315508021390374,0.0016725953497137745,0.0015731833331566704,0.9041765317503594,-0.10539200010026022,0.0,3.0,-0.10539200010026022,10.216175509377035,8.76320887332989,0.000835045098273399,293.0,274.0,5.146757679180888,0.1386861313868613,0.309255079006772,3017.0,8449.0,40.0,42.0,0.0,0.0,0.0,1.0,,0.0,0.004971002485501243,0.0,0.0,0.0,0.0,0.0,0.0,0.0,0.0,0.0,0.0
985,3249.0,8571.0,5.276084949215143,0.001624410390768209,0.0015439134394514384,0.9188549988148483,-0.10582554226223626,0.0,3.0,-0.10582554226223626,10.245284977819136,8.778011580244097,0.0008110078807305911,293.0,274.0,5.3174061433447095,0.1386861313868613,0.309255079006772,3069.0,8571.0,56.0,58.0,0.0,0.0,0.0,1.0,0.0,0.0,0.006767005016917513,0.0,0.0,0.0,0.0,0.0,0.0,0.0,0.0,0.0,0.0
986,3249.0,8571.0,5.276084949215143,0.001624410390768209,0.0015439134394514384,0.9188549988148483,-0.10582554226223626,0.0,3.0,-0.10582554226223626,10.245284977819136,8.778011580244097,0.0008110078807305911,293.0,274.0,5.3174061433447095,0.1386861313868613,0.309255079006772,3069.0,8571.0,56.0,58.0,0.0,0.0,0.0,1.0,,0.0,0.006767005016917513,0.0,0.0,0.0,0.0,0.0,0.0,0.0,0.0,0.0,0.0
987,3252.0,8577.0,5.2749077490774905,0.0016225492922416148,0.0015431601084847822,0.9191480365802478,-0.10595724873897547,0.0,3.0,-0.10595724873897547,10.246628750234548,8.779620374035211,0.0008100795952608972,293.0,274.0,5.324232081911263,0.1386861313868613,0.309255079006772,3073.0,8577.0,56.0,58.0,0.0,0.0,0.0,1.0,0.0,0.0,0.006762271190392911,0.0,0.0,0.0,0.0,0.0,0.0,0.0,0.0,0.0,0.0
988,3252.0,8577.0,5.2749077490774905,0.0016225492922416148,0.0015431601084847822,0.9191480365802478,-0.10595724873897547,0.0,3.0,-0.10595724873897547,10.246628750234548,8.779620374035211,0.0008100795952608972,293.0,274.0,5.324232081911263,0.1386861313868613,0.309255079006772,3073.0,8577.0,56.0,58.0,0.0,0.0,0.0,1.0,,0.0,0.006762271190392911,0.0,0.0,0.0,0.0,0.0,0.0,0.0,0.0,0.0,0.0
989,3252.0,8577.0,5.2749077490774905,0.0016225492922416148,0.0015431601084847822,0.9191480365802478,-0.10595724873897547,0.0,3.0,-0.10595724873897547,10.246628750234548,8.779620374035211,0.0008100795952608972,293.0,274.0,5.324232081911263,0.1386861313868613,0.309255079006772,3073.0,8577.0,56.0,58.0,0.0,0.0,0.0,1.0,,0.0,0.006762271190392911,0.0,0.0,0.0,0.0,0.0,0.0,0.0,0.0,0.0,0.0
640,3252.0,8577.0,5.2749077490774905,0.0016225492922416148,0.0015431601084847822,0.9191480365802478,-0.10595724873897547,0.0,3.0,-0.10595724873897547,10.246628750234548,8.779620374035211,0.0008100795952608972,293.0,274.0,5.324232081911263,0.1386861313868613,0.309255079006772,3073.0,8577.0,56.0,58.0,0.0,0.0,0.0,1.0,,0.0,0.006762271190392911,0.0,0.0,0.0,0.0,0.0,0.0,0.0,0.0,0.0,0.0
642,3252.0,8577.0,5.2749077490774905,0.0016225492922416148,0.0015431601084847822,0.9191480365802478,-0.10595724873897547,0.0,3.0,-0.10595724873897547,10.246628750234548,8.779620374035211,0.0008100795952608972,293.0,274.0,5.324232081911263,0.1386861313868613,0.309255079006772,3073.0,8577.0,56.0,58.0,0.0,0.0,0.0,1.0,,0.0,0.006762271190392911,0.0,0.0,0.0,0.0,0.0,0.0,0.0,0.0,0.0,0.0
644,3252.0,8577.0,5.2749077490774905,0.0016225492922416148,0.0015431601084847822,0.9191480365802478,-0.10595724873897547,0.0,3.0,-0.10595724873897547,10.246628750234548,8.779620374035211,0.0008100795952608972,293.0,274.0,5.324232081911263,0.1386861313868613,0.309255079006772,3073.0,8577.0,56.0,58.0,0.0,0.0,0.0,1.0,,0.0,0.006762271190392911,0.0,0.0,0.0,0.0,0.0,0.0,0.0,0.0,0.0,0.0
646,3252.0,8577.0,5.2749077490774905,0.0016225492922416148,0.0015431601084847822,0.9191480365802478,-0.10595724873897547,0.0,3.0,-0.10595724873897547,10.246628750234548,8.779620374035211,0.0008100795952608972,293.0,274.0,5.324232081911263,0.1386861313868613,0.309255079006772,3073.0,8577.0,56.0,58.0,0.0,0.0,0.0,1.0,,0.0,0.006762271190392911,0.0,0.0,0.0,0.0,0.0,0.0,0.0,0.0,0.0,0.0
648,3252.0,8577.0,5.2749077490774905,0.0016225492922416148,0.0015431601084847822,0.9191480365802478,-0.10595724873897547,0.0,3.0,-0.10595724873897547,10.246628750234548,8.779620374035211,0.0008100795952608972,293.0,274.0,5.324232081911263,0.1386861313868613,0.309255079006772,3073.0,8577.0,56.0,58.0,0.0,0.0,0.0,1.0,,0.0,0.006762271190392911,0.0,0.0,0.0,0.0,0.0,0.0,0.0,0.0,0.0,0.0
651,3252.0,8577.0,5.2749077490774905,0.0016225492922416148,0.0015431601084847822,0.9191480365802478,-0.10595724873897547,0.0,3.0,-0.10595724873897547,10.246628750234548,8.779620374035211,0.0008100795952608972,293.0,274.0,5.324232081911263,0.1386861313868613,0.309255079006772,3073.0,8577.0,56.0,58.0,0.0,0.0,0.0,1.0,,0.0,0.006762271190392911,0.0,0.0,0.0,0.0,0.0,0.0,0.0,0.0,0.0,0.0
654,3252.0,8577.0,5.2749077490774905,0.0016225492922416148,0.0015431601084847822,0.9191480365802478,-0.10595724873897547,0.0,3.0,-0.10595724873897547,10.246628750234548,8.779620374035211,0.0008100795952608972,293.0,274.0,5.324232081911263,0.1386861313868613,0.309255079006772,3073.0,8577.0,56.0,58.0,0.0,0.0,0.0,1.0,,0.0,0.006762271190392911,0.0,0.0,0.0,0.0,0.0,0.0,0.0,0.0,0.0,0.0
603,3252.0,8577.0,5.2749077490774905,0.0016225492922416148,0.0015431601084847822,0.9191480365802478,-0.10595724873897547,0.0,3.0,-0.10595724873897547,10.246628750234548,8.779620374035211,0.0008100795952608972,293.0,274.0,5.324232081911263,0.1386861313868613,0.309255079006772,3073.0,8577.0,56.0,58.0,0.0,0.0,0.0,1.0,,0.0,0.006762271190392911,0.0,0.0,0.0,0.0,0.0,0.0,0.0,0.0,0.0,0.0
604,3252.0,8577.0,5.2749077490774905,0.0016225492922416148,0.0015431601084847822,0.9191480365802478,-0.10595724873897547,0.0,3.0,-0.10595724873897547,10.246628750234548,8.779620374035211,0.0008100795952608972,293.0,274.0,5.324232081911263,0.1386861313868613,0.309255079006772,3073.0,8577.0,56.0,58.0,0.0,0.0,0.0,1.0,,0.0,0.006762271190392911,0.0,0.0,0.0,0.0,0.0,0.0,0.0,0.0,0.0,0.0
605,3252.0,8577.0,5.2749077490774905,0.0016225492922416148,0.0015431601084847822,0.9191480365802478,-0.10595724873897547,0.0,3.0,-0.10595724873897547,10.246628750234548,8.779620374035211,0.0008100795952608972,293.0,274.0,5.324232081911263,0.1386861313868613,0.309255079006772,3073.0,8577.0,56.0,58.0,0.0,0.0,0.0,1.0,,0.0,0.006762271190392911,0.0,0.0,0.0,0.0,0.0,0.0,0.0,0.0,0.0,0.0
606,3271.0,8613.0,5.2662794252522165,0.0016104830046642861,0.0015358538866401747,0.919907332362102,-0.10637979372675799,0.0,3.0,-0.10637979372675799,10.255790858003662,8.789316472173155,0.0008040606981243226,293.0,274.0,5.361774744027303,0.1386861313868613,0.309255079006772,3087.0,8613.0,57.0,60.0,0.0,0.0,0.0,1.0,0.0,0.0,0.006966213862765587,0.0,0.0,0.0,0.0,0.0,0.0,0.0,0.0,0.0,0.0
607,3271.0,8613.0,5.2662794252522165,0.0016104830046642861,0.0015358538866401747,0.919907332362102,-0.10637979372675799,0.0,3.0,-0.10637979372675799,10.255790858003662,8.789316472173155,0.0008040606981243226,293.0,274.0,5.361774744027303,0.1386861313868613,0.309255079006772,3087.0,8613.0,57.0,60.0,0.0,0.0,0.0,1.0,,0.0,0.006966213862765587,0.0,0.0,0.0,0.0,0.0,0.0,0.0,0.0,0.0,0.0
608,3271.0,8613.0,5.2662794252522165,0.0016104830046642861,0.0015358538866401747,0.919907332362102,-0.10637979372675799,0.0,3.0,-0.10637979372675799,10.255790858003662,8.789316472173155,0.0008040606981243226,293.0,274.0,5.361774744027303,0.1386861313868613,0.309255079006772,3087.0,8613.0,57.0,60.0,0.0,0.0,0.0,1.0,,0.0,0.006966213862765587,0.0,0.0,0.0,0.0,0.0,0.0,0.0,0.0,0.0,0.0
609,3271.0,8613.0,5.2662794252522165,0.0016104830046642861,0.0015358538866401747,0.919907332362102,-0.10637979372675799,0.0,3.0,-0.10637979372675799,10.255790858003662,8.789316472173155,0.0008040606981243226,293.0,274.0,5.361774744027303,0.1386861313868613,0.309255079006772,3087.0,8613.0,57.0,60.0,0.0,0.0,0.0,1.0,,0.0,0.006966213862765587,0.0,0.0,0.0,0.0,0.0,0.0,0.0,0.0,0.0,0.0
610,3278.0,8626.0,5.262965222696766,0.001606031499144573,0.00153343115260446,0.9209108669570997,-0.10651436910133215,0.0,3.0,-0.10651436910133215,10.258707728927394,8.790988802301557,0.0008018401374965985,293.0,274.0,5.378839590443686,0.1386861313868613,0.309255079006772,3094.0,8626.0,58.0,61.0,0.0,0.0,0.0,1.0,0.0,0.0,0.0070716438673776956,0.0,0.0,0.0,0.0,0.0,0.0,0.0,0.0,0.0,0.0
611,3278.0,8626.0,5.262965222696766,0.001606031499144573,0.00153343115260446,0.9209108669570997,-0.10651436910133215,0.0,3.0,-0.10651436910133215,10.258707728927394,8.790988802301557,0.0008018401374965985,293.0,274.0,5.378839590443686,0.1386861313868613,0.309255079006772,3094.0,8626.0,58.0,61.0,0.0,0.0,0.0,1.0,,0.0,0.0070716438673776956,0.0,0.0,0.0,0.0,0.0,0.0,0.0,0.0,0.0,0.0
612,3278.0,8626.0,5.262965222696766,0.001606031499144573,0.00153343115260446,0.9209108669570997,-0.10651436910133215,0.0,3.0,-0.10651436910133215,10.258707728927394,8.790988802301557,0.0008018401374965985,293.0,274.0,5.378839590443686,0.1386861313868613,0.309255079006772,3094.0,8626.0,58.0,61.0,0.0,0.0,0.0,1.0,,0.0,0.0070716438673776956,0.0,0.0,0.0,0.0,0.0,0.0,0.0,0.0,0.0,0.0
677,3278.0,8626.0,5.262965222696766,0.001606031499144573,0.00153343115260446,0.9209108669570997,-0.10651436910133215,0.0,3.0,-0.10651436910133215,10.258707728927394,8.790988802301557,0.0008018401374965985,293.0,274.0,5.378839590443686,0.1386861313868613,0.309255079006772,3094.0,8626.0,58.0,61.0,0.0,0.0,0.0,1.0,,0.0,0.0070716438673776956,0.0,0.0,0.0,0.0,0.0,0.0,0.0,0.0,0.0,0.0
678,3278.0,8626.0,5.262965222696766,0.001606031499144573,0.00153343115260446,0.9209108669570997,-0.10651436910133215,0.0,3.0,-0.10651436910133215,10.258707728927394,8.790988802301557,0.0008018401374965985,293.0,274.0,5.378839590443686,0.1386861313868613,0.309255079006772,3094.0,8626.0,58.0,61.0,0.0,0.0,0.0,1.0,,0.0,0.0070716438673776956,0.0,0.0,0.0,0.0,0.0,0.0,0.0,0.0,0.0,0.0
679,3278.0,8626.0,5.262965222696766,0.001606031499144573,0.00153343115260446,0.9209108669570997,-0.10651436910133215,0.0,3.0,-0.10651436910133215,10.258707728927394,8.790988802301557,0.0008018401374965985,293.0,274.0,5.378839590443686,0.1386861313868613,0.309255079006772,3094.0,8626.0,58.0,61.0,0.0,0.0,0.0,1.0,,0.0,0.0070716438673776956,0.0,0.0,0.0,0.0,0.0,0.0,0.0,0.0,0.0,0.0
680,3287.0,8644.0,5.259507149376331,0.0016005803862983359,0.001530998593807977,0.9223993837135154,-0.10617407924152236,0.0,3.0,-0.10617407924152236,10.263047606681202,8.793945883644074,0.000799121170333964,293.0,274.0,5.406143344709897,0.1386861313868613,0.309255079006772,3104.0,8644.0,59.0,62.0,0.0,0.0,0.0,1.0,0.0,0.0,0.0071726052753354926,0.0,0.0,0.0,0.0,0.0,0.0,0.0,0.0,0.0,0.0
681,3287.0,8644.0,5.259507149376331,0.0016005803862983359,0.001530998593807977,0.9223993837135154,-0.10617407924152236,0.0,3.0,-0.10617407924152236,10.263047606681202,8.793945883644074,0.000799121170333964,293.0,274.0,5.406143344709897,0.1386861313868613,0.309255079006772,3104.0,8644.0,59.0,62.0,0.0,0.0,0.0,1.0,,0.0,0.0071726052753354926,0.0,0.0,0.0,0.0,0.0,0.0,0.0,0.0,0.0,0.0
682,3293.0,8657.0,5.257819617370179,0.001597150552056555,0.001529714369097199,0.9238494679853777,-0.10591561027372261,0.0,3.0,-0.10591561027372261,10.265982611644704,8.795496030741685,0.0007974105873292777,293.0,274.0,5.426621160409557,0.1386861313868613,0.309255079006772,3112.0,8657.0,60.0,63.0,0.0,0.0,0.0,1.0,0.0,0.0,0.007277347811019984,0.0,0.0,0.0,0.0,0.0,0.0,0.0,0.0,0.0,0.0
683,3293.0,8657.0,5.257819617370179,0.001597150552056555,0.001529714369097199,0.9238494679853777,-0.10591561027372261,0.0,3.0,-0.10591561027372261,10.265982611644704,8.795496030741685,0.0007974105873292777,293.0,274.0,5.426621160409557,0.1386861313868613,0.309255079006772,3112.0,8657.0,60.0,63.0,0.0,0.0,0.0,1.0,,0.0,0.007277347811019984,0.0,0.0,0.0,0.0,0.0,0.0,0.0,0.0,0.0,0.0
684,3293.0,8657.0,5.257819617370179,0.001597150552056555,0.001529714369097199,0.9238494679853777,-0.10591561027372261,0.0,3.0,-0.10591561027372261,10.265982611644704,8.795496030741685,0.0007974105873292777,293.0,274.0,5.426621160409557,0.1386861313868613,0.309255079006772,3112.0,8657.0,60.0,63.0,0.0,0.0,0.0,1.0,,0.0,0.007277347811019984,0.0,0.0,0.0,0.0,0.0,0.0,0.0,0.0,0.0,0.0
316,3293.0,8657.0,5.257819617370179,0.001597150552056555,0.001529714369097199,0.9238494679853777,-0.10591561027372261,0.0,3.0,-0.10591561027372261,10.265982611644704,8.795496030741685,0.0007974105873292777,293.0,274.0,5.426621160409557,0.1386861313868613,0.309255079006772,3112.0,8657.0,60.0,63.0,0.0,0.0,0.0,1.0,,0.0,0.007277347811019984,0.0,0.0,0.0,0.0,0.0,0.0,0.0,0.0,0.0,0.0
318,3293.0,8657.0,5.257819617370179,0.001597150552056555,0.001529714369097199,0.9238494679853777,-0.10591561027372261,0.0,3.0,-0.10591561027372261,10.265982611644704,8.795496030741685,0.0007974105873292777,293.0,274.0,5.426621160409557,0.1386861313868613,0.309255079006772,3112.0,8657.0,60.0,63.0,0.0,0.0,0.0,1.0,,0.0,0.007277347811019984,0.0,0.0,0.0,0.0,0.0,0.0,0.0,0.0,0.0,0.0
545,3293.0,8657.0,5.257819617370179,0.001597150552056555,0.001529714369097199,0.9238494679853777,-0.10591561027372261,0.0,3.0,-0.10591561027372261,10.265982611644704,8.795496030741685,0.0007974105873292777,293.0,274.0,5.426621160409557,0.1386861313868613,0.309255079006772,3112.0,8657.0,60.0,63.0,0.0,0.0,0.0,1.0,,0.0,0.007277347811019984,0.0,0.0,0.0,0.0,0.0,0.0,0.0,0.0,0.0,0.0
546,3317.0,8696.0,5.243292131444076,0.0015812099310748117,0.0015191464984814235,0.9249143985470639,-0.10522672206404285,0.0,3.0,-0.10522672206404285,10.277035658102692,8.804856849515588,0.0007894577308825303,293.0,274.0,5.467576791808874,0.1386861313868613,0.309255079006772,3127.0,8696.0,62.0,65.0,0.0,0.0,0.0,1.0,0.0,0.0,0.007474701011959521,0.0,0.0,0.0,0.0,0.0,0.0,0.0,0.0,0.0,0.0
547,3317.0,8696.0,5.243292131444076,0.0015812099310748117,0.0015191464984814235,0.9249143985470639,-0.10522672206404285,0.0,3.0,-0.10522672206404285,10.277035658102692,8.804856849515588,0.0007894577308825303,293.0,274.0,5.467576791808874,0.1386861313868613,0.309255079006772,3127.0,8696.0,62.0,65.0,0.0,0.0,0.0,1.0,,0.0,0.007474701011959521,0.0,0.0,0.0,0.0,0.0,0.0,0.0,0.0,0.0,0.0
548,3325.0,8709.0,5.238496240601504,0.0015759615645612225,0.0015163115449229679,0.9265486897184796,-0.10486450654702785,0.0,3.0,-0.10486450654702785,10.280234158596777,8.805958256370637,0.0007868392786477471,293.0,274.0,5.484641638225256,0.1386861313868613,0.309255079006772,3134.0,8709.0,63.0,66.0,0.0,0.0,0.0,1.0,0.0,0.0,0.007578367206338271,0.0,0.0,0.0,0.0,0.0,0.0,0.0,0.0,0.0,0.0
549,3325.0,8709.0,5.238496240601504,0.0015759615645612225,0.0015163115449229679,0.9265486897184796,-0.10486450654702785,0.0,3.0,-0.10486450654702785,10.280234158596777,8.805958256370637,0.0007868392786477471,293.0,274.0,5.484641638225256,0.1386861313868613,0.309255079006772,3134.0,8709.0,63.0,66.0,0.0,0.0,0.0,1.0,,0.0,0.007578367206338271,0.0,0.0,0.0,0.0,0.0,0.0,0.0,0.0,0.0,0.0
550,3336.0,8730.0,5.233812949640288,0.0015693592052894413,0.0015128823662391253,0.9284352221826468,-0.10524101977178664,0.0,3.0,-0.10524101977178664,10.284760247927847,8.808853737188288,0.0007835458252103354,293.0,274.0,5.511945392491468,0.1386861313868613,0.309255079006772,3144.0,8730.0,65.0,68.0,0.0,0.0,0.0,1.0,0.0,0.0,0.007789232531500573,0.0,0.0,0.0,0.0,0.0,0.0,0.0,0.0,0.0,0.0
551,3336.0,8730.0,5.233812949640288,0.0015693592052894413,0.0015128823662391253,0.9284352221826468,-0.10524101977178664,0.0,3.0,-0.10524101977178664,10.284760247927847,8.808853737188288,0.0007835458252103354,293.0,274.0,5.511945392491468,0.1386861313868613,0.309255079006772,3144.0,8730.0,65.0,68.0,0.0,0.0,0.0,1.0,,0.0,0.007789232531500573,0.0,0.0,0.0,0.0,0.0,0.0,0.0,0.0,0.0,0.0
722,3336.0,8730.0,5.233812949640288,0.0015693592052894413,0.0015128823662391253,0.9284352221826468,-0.10524101977178664,0.0,3.0,-0.10524101977178664,10.284760247927847,8.808853737188288,0.0007835458252103354,293.0,274.0,5.511945392491468,0.1386861313868613,0.309255079006772,3144.0,8730.0,65.0,68.0,0.0,0.0,0.0,1.0,,0.0,0.007789232531500573,0.0,0.0,0.0,0.0,0.0,0.0,0.0,0.0,0.0,0.0
723,3336.0,8730.0,5.233812949640288,0.0015693592052894413,0.0015128823662391253,0.9284352221826468,-0.10524101977178664,0.0,3.0,-0.10524101977178664,10.284760247927847,8.808853737188288,0.0007835458252103354,293.0,274.0,5.511945392491468,0.1386861313868613,0.309255079006772,3144.0,8730.0,65.0,68.0,0.0,0.0,0.0,1.0,,0.0,0.007789232531500573,0.0,0.0,0.0,0.0,0.0,0.0,0.0,0.0,0.0,0.0
724,3336.0,8730.0,5.233812949640288,0.0015693592052894413,0.0015128823662391253,0.9284352221826468,-0.10524101977178664,0.0,3.0,-0.10524101977178664,10.284760247927847,8.808853737188288,0.0007835458252103354,293.0,274.0,5.511945392491468,0.1386861313868613,0.309255079006772,3144.0,8730.0,65.0,68.0,0.0,0.0,0.0,1.0,,0.0,0.007789232531500573,0.0,0.0,0.0,0.0,0.0,0.0,0.0,0.0,0.0,0.0
725,3336.0,8730.0,5.233812949640288,0.0015693592052894413,0.0015128823662391253,0.9284352221826468,-0.10524101977178664,0.0,3.0,-0.10524101977178664,10.284760247927847,8.808853737188288,0.0007835458252103354,293.0,274.0,5.511945392491468,0.1386861313868613,0.309255079006772,3144.0,8730.0,65.0,68.0,0.0,0.0,0.0,1.0,,0.0,0.007789232531500573,0.0,0.0,0.0,0.0,0.0,0.0,0.0,0.0,0.0,0.0
726,3336.0,8730.0,5.233812949640288,0.0015693592052894413,0.0015128823662391253,0.9284352221826468,-0.10524101977178664,0.0,3.0,-0.10524101977178664,10.284760247927847,8.808853737188288,0.0007835458252103354,293.0,274.0,5.511945392491468,0.1386861313868613,0.309255079006772,3144.0,8730.0,65.0,68.0,0.0,0.0,0.0,1.0,,0.0,0.007789232531500573,0.0,0.0,0.0,0.0,0.0,0.0,0.0,0.0,0.0,0.0
727,3336.0,8730.0,5.233812949640288,0.0015693592052894413,0.0015128823662391253,0.9284352221826468,-0.10524101977178664,0.0,3.0,-0.10524101977178664,10.284760247927847,8.808853737188288,0.0007835458252103354,293.0,274.0,5.511945392491468,0.1386861313868613,0.309255079006772,3144.0,8730.0,65.0,68.0,0.0,0.0,0.0,1.0,,0.0,0.007789232531500573,0.0,0.0,0.0,0.0,0.0,0.0,0.0,0.0,0.0,0.0
728,3352.0,8760.0,5.22673031026253,0.0015597524053305074,0.0015071214609766498,0.9288805251339286,-0.10524212267083047,0.0,3.0,-0.10524212267083047,10.292406593771322,8.816322712580103,0.0007787535386560797,293.0,274.0,5.5426621160409555,0.1386861313868613,0.309255079006772,3156.0,8760.0,66.0,69.0,0.0,0.0,0.0,1.0,0.0,0.0,0.007876712328767124,0.0,0.0,0.0,0.0,0.0,0.0,0.0,0.0,0.0,0.0
729,3352.0,8760.0,5.22673031026253,0.0015597524053305074,0.0015071214609766498,0.9288805251339286,-0.10524212267083047,0.0,3.0,-0.10524212267083047,10.292406593771322,8.816322712580103,0.0007787535386560797,293.0,274.0,5.5426621160409555,0.1386861313868613,0.309255079006772,3156.0,8760.0,66.0,69.0,0.0,0.0,0.0,1.0,,0.0,0.007876712328767124,0.0,0.0,0.0,0.0,0.0,0.0,0.0,0.0,0.0,0.0
730,3352.0,8760.0,5.22673031026253,0.0015597524053305074,0.0015071214609766498,0.9288805251339286,-0.10524212267083047,0.0,3.0,-0.10524212267083047,10.292406593771322,8.816322712580103,0.0007787535386560797,293.0,274.0,5.5426621160409555,0.1386861313868613,0.309255079006772,3156.0,8760.0,66.0,69.0,0.0,0.0,0.0,1.0,,0.0,0.007876712328767124,0.0,0.0,0.0,0.0,0.0,0.0,0.0,0.0,0.0,0.0
731,3352.0,8760.0,5.22673031026253,0.0015597524053305074,0.0015071214609766498,0.9288805251339286,-0.10524212267083047,0.0,3.0,-0.10524212267083047,10.292406593771322,8.816322712580103,0.0007787535386560797,293.0,274.0,5.5426621160409555,0.1386861313868613,0.309255079006772,3156.0,8760.0,66.0,69.0,0.0,0.0,0.0,1.0,,0.0,0.007876712328767124,0.0,0.0,0.0,0.0,0.0,0.0,0.0,0.0,0.0,0.0
732,3352.0,8760.0,5.22673031026253,0.0015597524053305074,0.0015071214609766498,0.9288805251339286,-0.10524212267083047,0.0,3.0,-0.10524212267083047,10.292406593771322,8.816322712580103,0.0007787535386560797,293.0,274.0,5.5426621160409555,0.1386861313868613,0.309255079006772,3156.0,8760.0,66.0,69.0,0.0,0.0,0.0,1.0,,0.0,0.007876712328767124,0.0,0.0,0.0,0.0,0.0,0.0,0.0,0.0,0.0,0.0
49,3352.0,8760.0,5.22673031026253,0.0015597524053305074,0.0015071214609766498,0.9288805251339286,-0.10524212267083047,0.0,3.0,-0.10524212267083047,10.292406593771322,8.816322712580103,0.0007787535386560797,293.0,274.0,5.5426621160409555,0.1386861313868613,0.309255079006772,3156.0,8760.0,66.0,69.0,0.0,0.0,0.0,1.0,,0.0,0.007876712328767124,0.0,0.0,0.0,0.0,0.0,0.0,0.0,0.0,0.0,0.0
51,3352.0,8760.0,5.22673031026253,0.0015597524053305074,0.0015071214609766498,0.9288805251339286,-0.10524212267083047,0.0,3.0,-0.10524212267083047,10.292406593771322,8.816322712580103,0.0007787535386560797,293.0,274.0,5.5426621160409555,0.1386861313868613,0.309255079006772,3156.0,8760.0,66.0,69.0,0.0,0.0,0.0,1.0,,0.0,0.007876712328767124,0.0,0.0,0.0,0.0,0.0,0.0,0.0,0.0,0.0,0.0
53,3352.0,8760.0,5.22673031026253,0.0015597524053305074,0.0015071214609766498,0.9288805251339286,-0.10524212267083047,0.0,3.0,-0.10524212267083047,10.292406593771322,8.816322712580103,0.0007787535386560797,293.0,274.0,5.5426621160409555,0.1386861313868613,0.309255079006772,3156.0,8760.0,66.0,69.0,0.0,0.0,0.0,1.0,,0.0,0.007876712328767124,0.0,0.0,0.0,0.0,0.0,0.0,0.0,0.0,0.0,0.0
57,3352.0,8760.0,5.22673031026253,0.0015597524053305074,0.0015071214609766498,0.9288805251339286,-0.10524212267083047,0.0,3.0,-0.10524212267083047,10.292406593771322,8.816322712580103,0.0007787535386560797,293.0,274.0,5.5426621160409555,0.1386861313868613,0.309255079006772,3156.0,8760.0,66.0,69.0,0.0,0.0,0.0,1.0,,0.0,0.007876712328767124,0.0,0.0,0.0,0.0,0.0,0.0,0.0,0.0,0.0,0.0
59,3352.0,8760.0,5.22673031026253,0.0015597524053305074,0.0015071214609766498,0.9288805251339286,-0.10524212267083047,0.0,3.0,-0.10524212267083047,10.292406593771322,8.816322712580103,0.0007787535386560797,293.0,274.0,5.5426621160409555,0.1386861313868613,0.309255079006772,3156.0,8760.0,66.0,69.0,0.0,0.0,0.0,1.0,,0.0,0.007876712328767124,0.0,0.0,0.0,0.0,0.0,0.0,0.0,0.0,0.0,0.0
465,3352.0,8760.0,5.22673031026253,0.0015597524053305074,0.0015071214609766498,0.9288805251339286,-0.10524212267083047,0.0,3.0,-0.10524212267083047,10.292406593771322,8.816322712580103,0.0007787535386560797,293.0,274.0,5.5426621160409555,0.1386861313868613,0.309255079006772,3156.0,8760.0,66.0,69.0,0.0,0.0,0.0,1.0,,0.0,0.007876712328767124,0.0,0.0,0.0,0.0,0.0,0.0,0.0,0.0,0.0,0.0
467,3352.0,8760.0,5.22673031026253,0.0015597524053305074,0.0015071214609766498,0.9288805251339286,-0.10524212267083047,0.0,3.0,-0.10524212267083047,10.292406593771322,8.816322712580103,0.0007787535386560797,293.0,274.0,5.5426621160409555,0.1386861313868613,0.309255079006772,3156.0,8760.0,66.0,69.0,0.0,0.0,0.0,1.0,,0.0,0.007876712328767124,0.0,0.0,0.0,0.0,0.0,0.0,0.0,0.0,0.0,0.0
469,3352.0,8760.0,5.22673031026253,0.0015597524053305074,0.0015071214609766498,0.9288805251339286,-0.10524212267083047,0.0,3.0,-0.10524212267083047,10.292406593771322,8.816322712580103,0.0007787535386560797,293.0,274.0,5.5426621160409555,0.1386861313868613,0.309255079006772,3156.0,8760.0,66.0,69.0,0.0,0.0,0.0,1.0,,0.0,0.007876712328767124,0.0,0.0,0.0,0.0,0.0,0.0,0.0,0.0,0.0,0.0
471,3352.0,8760.0,5.22673031026253,0.0015597524053305074,0.0015071214609766498,0.9288805251339286,-0.10524212267083047,0.0,3.0,-0.10524212267083047,10.292406593771322,8.816322712580103,0.0007787535386560797,293.0,274.0,5.5426621160409555,0.1386861313868613,0.309255079006772,3156.0,8760.0,66.0,69.0,0.0,0.0,0.0,1.0,,0.0,0.007876712328767124,0.0,0.0,0.0,0.0,0.0,0.0,0.0,0.0,0.0,0.0
473,3352.0,8760.0,5.22673031026253,0.0015597524053305074,0.0015071214609766498,0.9288805251339286,-0.10524212267083047,0.0,3.0,-0.10524212267083047,10.292406593771322,8.816322712580103,0.0007787535386560797,293.0,274.0,5.5426621160409555,0.1386861313868613,0.309255079006772,3156.0,8760.0,66.0,69.0,0.0,0.0,0.0,1.0,,0.0,0.007876712328767124,0.0,0.0,0.0,0.0,0.0,0.0,0.0,0.0,0.0,0.0
479,3352.0,8760.0,5.22673031026253,0.0015597524053305074,0.0015071214609766498,0.9288805251339286,-0.10524212267083047,0.0,3.0,-0.10524212267083047,10.292406593771322,8.816322712580103,0.0007787535386560797,293.0,274.0,5.5426621160409555,0.1386861313868613,0.309255079006772,3156.0,8760.0,66.0,69.0,0.0,0.0,0.0,1.0,,0.0,0.007876712328767124,0.0,0.0,0.0,0.0,0.0,0.0,0.0,0.0,0.0,0.0
481,3352.0,8760.0,5.22673031026253,0.0015597524053305074,0.0015071214609766498,0.9288805251339286,-0.10524212267083047,0.0,3.0,-0.10524212267083047,10.292406593771322,8.816322712580103,0.0007787535386560797,293.0,274.0,5.5426621160409555,0.1386861313868613,0.309255079006772,3156.0,8760.0,66.0,69.0,0.0,0.0,0.0,1.0,,0.0,0.007876712328767124,0.0,0.0,0.0,0.0,0.0,0.0,0.0,0.0,0.0,0.0
141,3352.0,8760.0,5.22673031026253,0.0015597524053305074,0.0015071214609766498,0.9288805251339286,-0.10524212267083047,0.0,3.0,-0.10524212267083047,10.292406593771322,8.816322712580103,0.0007787535386560797,293.0,274.0,5.5426621160409555,0.1386861313868613,0.309255079006772,3156.0,8760.0,66.0,69.0,0.0,0.0,0.0,1.0,,0.0,0.007876712328767124,0.0,0.0,0.0,0.0,0.0,0.0,0.0,0.0,0.0,0.0
143,3352.0,8760.0,5.22673031026253,0.0015597524053305074,0.0015071214609766498,0.9288805251339286,-0.10524212267083047,0.0,3.0,-0.10524212267083047,10.292406593771322,8.816322712580103,0.0007787535386560797,293.0,274.0,5.5426621160409555,0.1386861313868613,0.309255079006772,3156.0,8760.0,66.0,69.0,0.0,0.0,0.0,1.0,,0.0,0.007876712328767124,0.0,0.0,0.0,0.0,0.0,0.0,0.0,0.0,0.0,0.0
145,3352.0,8760.0,5.22673031026253,0.0015597524053305074,0.0015071214609766498,0.9288805251339286,-0.10524212267083047,0.0,3.0,-0.10524212267083047,10.292406593771322,8.816322712580103,0.0007787535386560797,293.0,274.0,5.5426621160409555,0.1386861313868613,0.309255079006772,3156.0,8760.0,66.0,69.0,0.0,0.0,0.0,1.0,,0.0,0.007876712328767124,0.0,0.0,0.0,0.0,0.0,0.0,0.0,0.0,0.0,0.0
372,3352.0,8760.0,5.22673031026253,0.0015597524053305074,0.0015071214609766498,0.9288805251339286,-0.10524212267083047,0.0,3.0,-0.10524212267083047,10.292406593771322,8.816322712580103,0.0007787535386560797,293.0,274.0,5.5426621160409555,0.1386861313868613,0.309255079006772,3156.0,8760.0,66.0,69.0,0.0,0.0,0.0,1.0,,0.0,0.007876712328767124,0.0,0.0,0.0,0.0,0.0,0.0,0.0,0.0,0.0,0.0
374,3352.0,8760.0,5.22673031026253,0.0015597524053305074,0.0015071214609766498,0.9288805251339286,-0.10524212267083047,0.0,3.0,-0.10524212267083047,10.292406593771322,8.816322712580103,0.0007787535386560797,293.0,274.0,5.5426621160409555,0.1386861313868613,0.309255079006772,3156.0,8760.0,66.0,69.0,0.0,0.0,0.0,1.0,,0.0,0.007876712328767124,0.0,0.0,0.0,0.0,0.0,0.0,0.0,0.0,0.0,0.0
375,3352.0,8760.0,5.22673031026253,0.0015597524053305074,0.0015071214609766498,0.9288805251339286,-0.10524212267083047,0.0,3.0,-0.10524212267083047,10.292406593771322,8.816322712580103,0.0007787535386560797,293.0,274.0,5.5426621160409555,0.1386861313868613,0.309255079006772,3156.0,8760.0,66.0,69.0,0.0,0.0,0.0,1.0,,0.0,0.007876712328767124,0.0,0.0,0.0,0.0,0.0,0.0,0.0,0.0,0.0,0.0
376,3352.0,8760.0,5.22673031026253,0.0015597524053305074,0.0015071214609766498,0.9288805251339286,-0.10524212267083047,0.0,3.0,-0.10524212267083047,10.292406593771322,8.816322712580103,0.0007787535386560797,293.0,274.0,5.5426621160409555,0.1386861313868613,0.309255079006772,3156.0,8760.0,66.0,69.0,0.0,0.0,0.0,1.0,,0.0,0.007876712328767124,0.0,0.0,0.0,0.0,0.0,0.0,0.0,0.0,0.0,0.0
378,3352.0,8760.0,5.22673031026253,0.0015597524053305074,0.0015071214609766498,0.9288805251339286,-0.10524212267083047,0.0,3.0,-0.10524212267083047,10.292406593771322,8.816322712580103,0.0007787535386560797,293.0,274.0,5.5426621160409555,0.1386861313868613,0.309255079006772,3156.0,8760.0,66.0,69.0,0.0,0.0,0.0,1.0,,0.0,0.007876712328767124,0.0,0.0,0.0,0.0,0.0,0.0,0.0,0.0,0.0,0.0
380,3352.0,8760.0,5.22673031026253,0.0015597524053305074,0.0015071214609766498,0.9288805251339286,-0.10524212267083047,0.0,3.0,-0.10524212267083047,10.292406593771322,8.816322712580103,0.0007787535386560797,293.0,274.0,5.5426621160409555,0.1386861313868613,0.309255079006772,3156.0,8760.0,66.0,69.0,0.0,0.0,0.0,1.0,,0.0,0.007876712328767124,0.0,0.0,0.0,0.0,0.0,0.0,0.0,0.0,0.0,0.0
382,3352.0,8760.0,5.22673031026253,0.0015597524053305074,0.0015071214609766498,0.9288805251339286,-0.10524212267083047,0.0,3.0,-0.10524212267083047,10.292406593771322,8.816322712580103,0.0007787535386560797,293.0,274.0,5.5426621160409555,0.1386861313868613,0.309255079006772,3156.0,8760.0,66.0,69.0,0.0,0.0,0.0,1.0,,0.0,0.007876712328767124,0.0,0.0,0.0,0.0,0.0,0.0,0.0,0.0,0.0,0.0
