Turn,GROUP A - Total nodes,GROUP A - Total edges,GROUP A - Average degree,GROUP A - Average degree centrality,GROUP A - Average closeness,GROUP A - Average degree connectivity,GROUP A - Average assortativity,GROUP A - Average node connectivity,GROUP A - Number of components,GROUP A - Number of strong components,GROUP A - Centrality entropy,GROUP A - Closeness entropy,GROUP A - Sparseness,GROUP B - Total classes,GROUP B - Total properties,GROUP B - Average population,GROUP B - Attribute richness,GROUP B - Relationship richness,GROUP B - Total axioms,GROUP C - Total triples,GROUP C - Total world instances,GROUP C - Total claims,GROUP C - Total perspectives,GROUP C - Total mentions,GROUP C - Total conflicts,GROUP C - Total sources,GROUP C - Total interactions,GROUP C - Total utterances,GROUP C - Ratio claim to triples,GROUP C - Ratio perspectives to triples,GROUP C - Ratio conflicts to triples,GROUP C - Ratio perspectives to claims,GROUP C - Ratio mentions to claims,GROUP C - Ratio conflicts to claims,GROUP C - Average perspectives per claim,GROUP C - Average mentions per claim,GROUP C - Average turns per interaction,GROUP C - Average claims per source,GROUP C - Average perspectives per source
0,2876.0,7917.0,5.5055632823365785,0.0019149785329866359,0.0017140617469556256,0.8565156812226347,-0.11724473967873476,0.0,3.0,-0.11724473967873476,10.051382722877555,8.55260919389533,0.0009559473538622836,293.0,274.0,4.4573378839590445,0.1386861313868613,0.309255079006772,2773.0,7917.0,0.0,0.0,0.0,0.0,0.0,0.0,0.0,0.0,0.0,0.0,0.0,0.0,0.0,0.0,0.0,0.0,0.0,0.0,0.0
1,2876.0,7917.0,5.5055632823365785,0.0019149785329866359,0.0017140617469556256,0.8565156812226347,-0.11724473967873476,0.0,3.0,-0.11724473967873476,10.051382722877555,8.55260919389533,0.0009559473538622836,293.0,274.0,4.4573378839590445,0.1386861313868613,0.309255079006772,2773.0,7917.0,0.0,0.0,0.0,0.0,0.0,0.0,,0.0,0.0,0.0,0.0,0.0,0.0,0.0,0.0,0.0,0.0,0.0,0.0
2,2923.0,7992.0,5.468354430379747,0.0018714423101915628,0.0016854647751902401,0.8617992128622296,-0.113999874279342,0.0,3.0,-0.113999874279342,10.0788760454154,8.59963932329157,0.0009342306098283354,293.0,274.0,4.566552901023891,0.1386861313868613,0.309255079006772,2812.0,7992.0,4.0,4.0,0.0,0.0,0.0,1.0,0.0,0.0,0.0005005005005005005,0.0,0.0,0.0,0.0,0.0,0.0,0.0,0.0,0.0,0.0
3,2923.0,7992.0,5.468354430379747,0.0018714423101915628,0.0016854647751902401,0.8617992128622296,-0.113999874279342,0.0,3.0,-0.113999874279342,10.0788760454154,8.59963932329157,0.0009342306098283354,293.0,274.0,4.566552901023891,0.1386861313868613,0.309255079006772,2812.0,7992.0,4.0,4.0,0.0,0.0,0.0,1.0,,0.0,0.0005005005005005005,0.0,0.0,0.0,0.0,0.0,0.0,0.0,0.0,0.0,0.0
4,2923.0,7992.0,5.468354430379747,0.0018714423101915628,0.0016854647751902401,0.8617992128622296,-0.113999874279342,0.0,3.0,-0.113999874279342,10.0788760454154,8.59963932329157,0.0009342306098283354,293.0,274.0,4.566552901023891,0.1386861313868613,0.309255079006772,2812.0,7992.0,4.0,4.0,0.0,0.0,0.0,1.0,,0.0,0.0005005005005005005,0.0,0.0,0.0,0.0,0.0,0.0,0.0,0.0,0.0,0.0
5,2923.0,7992.0,5.468354430379747,0.0018714423101915628,0.0016854647751902401,0.8617992128622296,-0.113999874279342,0.0,3.0,-0.113999874279342,10.0788760454154,8.59963932329157,0.0009342306098283354,293.0,274.0,4.566552901023891,0.1386861313868613,0.309255079006772,2812.0,7992.0,4.0,4.0,0.0,0.0,0.0,1.0,,0.0,0.0005005005005005005,0.0,0.0,0.0,0.0,0.0,0.0,0.0,0.0,0.0,0.0
6,2940.0,8017.0,5.4537414965986395,0.0018556452863554406,0.0016763103892890546,0.8657162468921645,-0.1121296625486292,0.0,3.0,-0.1121296625486292,10.08799613187658,8.612079259336692,0.0009263501318894905,293.0,274.0,4.604095563139932,0.1386861313868613,0.309255079006772,2825.0,8017.0,7.0,7.0,0.0,0.0,0.0,1.0,0.0,0.0,0.000873144567793439,0.0,0.0,0.0,0.0,0.0,0.0,0.0,0.0,0.0,0.0
7,2940.0,8017.0,5.4537414965986395,0.0018556452863554406,0.0016763103892890546,0.8657162468921645,-0.1121296625486292,0.0,3.0,-0.1121296625486292,10.08799613187658,8.612079259336692,0.0009263501318894905,293.0,274.0,4.604095563139932,0.1386861313868613,0.309255079006772,2825.0,8017.0,7.0,7.0,0.0,0.0,0.0,1.0,,0.0,0.000873144567793439,0.0,0.0,0.0,0.0,0.0,0.0,0.0,0.0,0.0,0.0
8,2940.0,8017.0,5.4537414965986395,0.0018556452863554406,0.0016763103892890546,0.8657162468921645,-0.1121296625486292,0.0,3.0,-0.1121296625486292,10.08799613187658,8.612079259336692,0.0009263501318894905,293.0,274.0,4.604095563139932,0.1386861313868613,0.309255079006772,2825.0,8017.0,7.0,7.0,0.0,0.0,0.0,1.0,,0.0,0.000873144567793439,0.0,0.0,0.0,0.0,0.0,0.0,0.0,0.0,0.0,0.0
9,2940.0,8017.0,5.4537414965986395,0.0018556452863554406,0.0016763103892890546,0.8657162468921645,-0.1121296625486292,0.0,3.0,-0.1121296625486292,10.08799613187658,8.612079259336692,0.0009263501318894905,293.0,274.0,4.604095563139932,0.1386861313868613,0.309255079006772,2825.0,8017.0,7.0,7.0,0.0,0.0,0.0,1.0,,0.0,0.000873144567793439,0.0,0.0,0.0,0.0,0.0,0.0,0.0,0.0,0.0,0.0
10,2947.0,8031.0,5.450288428910756,0.0018500639609337257,0.0016736593788112745,0.8670273414953422,-0.1117531184261136,0.0,3.0,-0.1117531184261136,10.09226873746887,8.618650728849747,0.000923566655294319,293.0,274.0,4.624573378839591,0.1386861313868613,0.309255079006772,2833.0,8031.0,8.0,8.0,0.0,0.0,0.0,1.0,0.0,0.0,0.0009961399576640518,0.0,0.0,0.0,0.0,0.0,0.0,0.0,0.0,0.0,0.0
11,2947.0,8031.0,5.450288428910756,0.0018500639609337257,0.0016736593788112745,0.8670273414953422,-0.1117531184261136,0.0,3.0,-0.1117531184261136,10.09226873746887,8.618650728849747,0.000923566655294319,293.0,274.0,4.624573378839591,0.1386861313868613,0.309255079006772,2833.0,8031.0,8.0,8.0,0.0,0.0,0.0,1.0,,0.0,0.0009961399576640518,0.0,0.0,0.0,0.0,0.0,0.0,0.0,0.0,0.0,0.0
12,2958.0,8051.0,5.443542934415145,0.0018409005527274755,0.001668802492861814,0.8694745658765937,-0.11094884550495279,0.0,3.0,-0.11094884550495279,10.098753216419375,8.627541801449862,0.0009189962152122046,293.0,274.0,4.651877133105802,0.1386861313868613,0.309255079006772,2843.0,8051.0,10.0,10.0,0.0,0.0,0.0,1.0,0.0,0.0,0.0012420817289777667,0.0,0.0,0.0,0.0,0.0,0.0,0.0,0.0,0.0,0.0
13,2958.0,8051.0,5.443542934415145,0.0018409005527274755,0.001668802492861814,0.8694745658765937,-0.11094884550495279,0.0,3.0,-0.11094884550495279,10.098753216419375,8.627541801449862,0.0009189962152122046,293.0,274.0,4.651877133105802,0.1386861313868613,0.309255079006772,2843.0,8051.0,10.0,10.0,0.0,0.0,0.0,1.0,,0.0,0.0012420817289777667,0.0,0.0,0.0,0.0,0.0,0.0,0.0,0.0,0.0,0.0
14,2958.0,8051.0,5.443542934415145,0.0018409005527274755,0.001668802492861814,0.8694745658765937,-0.11094884550495279,0.0,3.0,-0.11094884550495279,10.098753216419375,8.627541801449862,0.0009189962152122046,293.0,274.0,4.651877133105802,0.1386861313868613,0.309255079006772,2843.0,8051.0,10.0,10.0,0.0,0.0,0.0,1.0,,0.0,0.0012420817289777667,0.0,0.0,0.0,0.0,0.0,0.0,0.0,0.0,0.0,0.0
15,2967.0,8069.0,5.439164138860802,0.001833838212697506,0.00166564984287697,0.8713534768665198,-0.11052965727136509,0.0,3.0,-0.11052965727136509,10.104326901821768,8.636420824556085,0.0009154741023293074,293.0,274.0,4.675767918088737,0.1386861313868613,0.309255079006772,2852.0,8069.0,11.0,11.0,0.0,0.0,0.0,1.0,0.0,0.0,0.0013632420374271904,0.0,0.0,0.0,0.0,0.0,0.0,0.0,0.0,0.0,0.0
16,2967.0,8069.0,5.439164138860802,0.001833838212697506,0.00166564984287697,0.8713534768665198,-0.11052965727136509,0.0,3.0,-0.11052965727136509,10.104326901821768,8.636420824556085,0.0009154741023293074,293.0,274.0,4.675767918088737,0.1386861313868613,0.309255079006772,2852.0,8069.0,11.0,11.0,0.0,0.0,0.0,1.0,,0.0,0.0013632420374271904,0.0,0.0,0.0,0.0,0.0,0.0,0.0,0.0,0.0,0.0
17,2979.0,8087.0,5.429338704263175,0.0018231493298398846,0.001659720529503406,0.8741495401640409,-0.10973110292972599,0.0,3.0,-0.10973110292972599,10.11030279128348,8.645206091705129,0.0009101418331588435,293.0,274.0,4.699658703071672,0.1386861313868613,0.309255079006772,2861.0,8087.0,12.0,13.0,0.0,0.0,0.0,1.0,0.0,0.0,0.0016075182391492519,0.0,0.0,0.0,0.0,0.0,0.0,0.0,0.0,0.0,0.0
18,2979.0,8087.0,5.429338704263175,0.0018231493298398846,0.001659720529503406,0.8741495401640409,-0.10973110292972599,0.0,3.0,-0.10973110292972599,10.11030279128348,8.645206091705129,0.0009101418331588435,293.0,274.0,4.699658703071672,0.1386861313868613,0.309255079006772,2861.0,8087.0,12.0,13.0,0.0,0.0,0.0,1.0,,0.0,0.0016075182391492519,0.0,0.0,0.0,0.0,0.0,0.0,0.0,0.0,0.0,0.0
19,2979.0,8087.0,5.429338704263175,0.0018231493298398846,0.001659720529503406,0.8741495401640409,-0.10973110292972599,0.0,3.0,-0.10973110292972599,10.11030279128348,8.645206091705129,0.0009101418331588435,293.0,274.0,4.699658703071672,0.1386861313868613,0.309255079006772,2861.0,8087.0,12.0,13.0,0.0,0.0,0.0,1.0,,0.0,0.0016075182391492519,0.0,0.0,0.0,0.0,0.0,0.0,0.0,0.0,0.0,0.0
20,2979.0,8087.0,5.429338704263175,0.0018231493298398846,0.001659720529503406,0.8741495401640409,-0.10973110292972599,0.0,3.0,-0.10973110292972599,10.11030279128348,8.645206091705129,0.0009101418331588435,293.0,274.0,4.699658703071672,0.1386861313868613,0.309255079006772,2861.0,8087.0,12.0,13.0,0.0,0.0,0.0,1.0,,0.0,0.0016075182391492519,0.0,0.0,0.0,0.0,0.0,0.0,0.0,0.0,0.0,0.0
21,2979.0,8087.0,5.429338704263175,0.0018231493298398846,0.001659720529503406,0.8741495401640409,-0.10973110292972599,0.0,3.0,-0.10973110292972599,10.11030279128348,8.645206091705129,0.0009101418331588435,293.0,274.0,4.699658703071672,0.1386861313868613,0.309255079006772,2861.0,8087.0,12.0,13.0,0.0,0.0,0.0,1.0,,0.0,0.0016075182391492519,0.0,0.0,0.0,0.0,0.0,0.0,0.0,0.0,0.0,0.0
22,2979.0,8087.0,5.429338704263175,0.0018231493298398846,0.001659720529503406,0.8741495401640409,-0.10973110292972599,0.0,3.0,-0.10973110292972599,10.11030279128348,8.645206091705129,0.0009101418331588435,293.0,274.0,4.699658703071672,0.1386861313868613,0.309255079006772,2861.0,8087.0,12.0,13.0,0.0,0.0,0.0,1.0,,0.0,0.0016075182391492519,0.0,0.0,0.0,0.0,0.0,0.0,0.0,0.0,0.0,0.0
23,2979.0,8087.0,5.429338704263175,0.0018231493298398846,0.001659720529503406,0.8741495401640409,-0.10973110292972599,0.0,3.0,-0.10973110292972599,10.11030279128348,8.645206091705129,0.0009101418331588435,293.0,274.0,4.699658703071672,0.1386861313868613,0.309255079006772,2861.0,8087.0,12.0,13.0,0.0,0.0,0.0,1.0,,0.0,0.0016075182391492519,0.0,0.0,0.0,0.0,0.0,0.0,0.0,0.0,0.0,0.0
24,2979.0,8087.0,5.429338704263175,0.0018231493298398846,0.001659720529503406,0.8741495401640409,-0.10973110292972599,0.0,3.0,-0.10973110292972599,10.11030279128348,8.645206091705129,0.0009101418331588435,293.0,274.0,4.699658703071672,0.1386861313868613,0.309255079006772,2861.0,8087.0,12.0,13.0,0.0,0.0,0.0,1.0,,0.0,0.0016075182391492519,0.0,0.0,0.0,0.0,0.0,0.0,0.0,0.0,0.0,0.0
25,2979.0,8087.0,5.429338704263175,0.0018231493298398846,0.001659720529503406,0.8741495401640409,-0.10973110292972599,0.0,3.0,-0.10973110292972599,10.11030279128348,8.645206091705129,0.0009101418331588435,293.0,274.0,4.699658703071672,0.1386861313868613,0.309255079006772,2861.0,8087.0,12.0,13.0,0.0,0.0,0.0,1.0,,0.0,0.0016075182391492519,0.0,0.0,0.0,0.0,0.0,0.0,0.0,0.0,0.0,0.0
26,2979.0,8087.0,5.429338704263175,0.0018231493298398846,0.001659720529503406,0.8741495401640409,-0.10973110292972599,0.0,3.0,-0.10973110292972599,10.11030279128348,8.645206091705129,0.0009101418331588435,293.0,274.0,4.699658703071672,0.1386861313868613,0.309255079006772,2861.0,8087.0,12.0,13.0,0.0,0.0,0.0,1.0,,0.0,0.0016075182391492519,0.0,0.0,0.0,0.0,0.0,0.0,0.0,0.0,0.0,0.0
27,2999.0,8124.0,5.417805935311771,0.0018071400718184692,0.001650437946104354,0.8758351368412048,-0.10897007345483217,0.0,3.0,-0.10897007345483217,10.122407795889966,8.663063890833188,0.0009021568932447306,293.0,274.0,4.7406143344709895,0.1386861313868613,0.309255079006772,2876.0,8124.0,14.0,15.0,0.0,0.0,0.0,1.0,0.0,0.0,0.001846381093057607,0.0,0.0,0.0,0.0,0.0,0.0,0.0,0.0,0.0,0.0
28,2999.0,8124.0,5.417805935311771,0.0018071400718184692,0.001650437946104354,0.8758351368412048,-0.10897007345483217,0.0,3.0,-0.10897007345483217,10.122407795889966,8.663063890833188,0.0009021568932447306,293.0,274.0,4.7406143344709895,0.1386861313868613,0.309255079006772,2876.0,8124.0,14.0,15.0,0.0,0.0,0.0,1.0,,0.0,0.001846381093057607,0.0,0.0,0.0,0.0,0.0,0.0,0.0,0.0,0.0,0.0
29,3008.0,8138.0,5.410904255319149,0.0017994360676152803,0.0016464340441084762,0.8778134669947164,-0.10837253370295497,0.0,3.0,-0.10837253370295497,10.12690792713164,8.668892279003412,0.0008983137166138524,293.0,274.0,4.761092150170649,0.1386861313868613,0.309255079006772,2884.0,8138.0,15.0,16.0,0.0,0.0,0.0,1.0,0.0,0.0,0.001966085033177685,0.0,0.0,0.0,0.0,0.0,0.0,0.0,0.0,0.0,0.0
30,3008.0,8138.0,5.410904255319149,0.0017994360676152803,0.0016464340441084762,0.8778134669947164,-0.10837253370295497,0.0,3.0,-0.10837253370295497,10.12690792713164,8.668892279003412,0.0008983137166138524,293.0,274.0,4.761092150170649,0.1386861313868613,0.309255079006772,2884.0,8138.0,15.0,16.0,0.0,0.0,0.0,1.0,,0.0,0.001966085033177685,0.0,0.0,0.0,0.0,0.0,0.0,0.0,0.0,0.0,0.0
31,3008.0,8138.0,5.410904255319149,0.0017994360676152803,0.0016464340441084762,0.8778134669947164,-0.10837253370295497,0.0,3.0,-0.10837253370295497,10.12690792713164,8.668892279003412,0.0008983137166138524,293.0,274.0,4.761092150170649,0.1386861313868613,0.309255079006772,2884.0,8138.0,15.0,16.0,0.0,0.0,0.0,1.0,,0.0,0.001966085033177685,0.0,0.0,0.0,0.0,0.0,0.0,0.0,0.0,0.0,0.0
32,3008.0,8138.0,5.410904255319149,0.0017994360676152803,0.0016464340441084762,0.8778134669947164,-0.10837253370295497,0.0,3.0,-0.10837253370295497,10.12690792713164,8.668892279003412,0.0008983137166138524,293.0,274.0,4.761092150170649,0.1386861313868613,0.309255079006772,2884.0,8138.0,15.0,16.0,0.0,0.0,0.0,1.0,,0.0,0.001966085033177685,0.0,0.0,0.0,0.0,0.0,0.0,0.0,0.0,0.0,0.0
33,3008.0,8138.0,5.410904255319149,0.0017994360676152803,0.0016464340441084762,0.8778134669947164,-0.10837253370295497,0.0,3.0,-0.10837253370295497,10.12690792713164,8.668892279003412,0.0008983137166138524,293.0,274.0,4.761092150170649,0.1386861313868613,0.309255079006772,2884.0,8138.0,15.0,16.0,0.0,0.0,0.0,1.0,,0.0,0.001966085033177685,0.0,0.0,0.0,0.0,0.0,0.0,0.0,0.0,0.0,0.0
34,3008.0,8138.0,5.410904255319149,0.0017994360676152803,0.0016464340441084762,0.8778134669947164,-0.10837253370295497,0.0,3.0,-0.10837253370295497,10.12690792713164,8.668892279003412,0.0008983137166138524,293.0,274.0,4.761092150170649,0.1386861313868613,0.309255079006772,2884.0,8138.0,15.0,16.0,0.0,0.0,0.0,1.0,,0.0,0.001966085033177685,0.0,0.0,0.0,0.0,0.0,0.0,0.0,0.0,0.0,0.0
35,3008.0,8138.0,5.410904255319149,0.0017994360676152803,0.0016464340441084762,0.8778134669947164,-0.10837253370295497,0.0,3.0,-0.10837253370295497,10.12690792713164,8.668892279003412,0.0008983137166138524,293.0,274.0,4.761092150170649,0.1386861313868613,0.309255079006772,2884.0,8138.0,15.0,16.0,0.0,0.0,0.0,1.0,,0.0,0.001966085033177685,0.0,0.0,0.0,0.0,0.0,0.0,0.0,0.0,0.0,0.0
36,3027.0,8176.0,5.402048232573505,0.0017852109162503319,0.001638650785791672,0.8795781786638075,-0.10765743702809746,0.0,3.0,-0.10765743702809746,10.138895290056958,8.685360912161041,0.0008912191989962815,293.0,274.0,4.802047781569966,0.1386861313868613,0.309255079006772,2899.0,8176.0,17.0,18.0,0.0,0.0,0.0,1.0,0.0,0.0,0.002201565557729941,0.0,0.0,0.0,0.0,0.0,0.0,0.0,0.0,0.0,0.0
37,3027.0,8176.0,5.402048232573505,0.0017852109162503319,0.001638650785791672,0.8795781786638075,-0.10765743702809746,0.0,3.0,-0.10765743702809746,10.138895290056958,8.685360912161041,0.0008912191989962815,293.0,274.0,4.802047781569966,0.1386861313868613,0.309255079006772,2899.0,8176.0,17.0,18.0,0.0,0.0,0.0,1.0,,0.0,0.002201565557729941,0.0,0.0,0.0,0.0,0.0,0.0,0.0,0.0,0.0,0.0
38,3027.0,8176.0,5.402048232573505,0.0017852109162503319,0.001638650785791672,0.8795781786638075,-0.10765743702809746,0.0,3.0,-0.10765743702809746,10.138895290056958,8.685360912161041,0.0008912191989962815,293.0,274.0,4.802047781569966,0.1386861313868613,0.309255079006772,2899.0,8176.0,17.0,18.0,0.0,0.0,0.0,1.0,,0.0,0.002201565557729941,0.0,0.0,0.0,0.0,0.0,0.0,0.0,0.0,0.0,0.0
39,3027.0,8176.0,5.402048232573505,0.0017852109162503319,0.001638650785791672,0.8795781786638075,-0.10765743702809746,0.0,3.0,-0.10765743702809746,10.138895290056958,8.685360912161041,0.0008912191989962815,293.0,274.0,4.802047781569966,0.1386861313868613,0.309255079006772,2899.0,8176.0,17.0,18.0,0.0,0.0,0.0,1.0,,0.0,0.002201565557729941,0.0,0.0,0.0,0.0,0.0,0.0,0.0,0.0,0.0,0.0
40,3027.0,8176.0,5.402048232573505,0.0017852109162503319,0.001638650785791672,0.8795781786638075,-0.10765743702809746,0.0,3.0,-0.10765743702809746,10.138895290056958,8.685360912161041,0.0008912191989962815,293.0,274.0,4.802047781569966,0.1386861313868613,0.309255079006772,2899.0,8176.0,17.0,18.0,0.0,0.0,0.0,1.0,,0.0,0.002201565557729941,0.0,0.0,0.0,0.0,0.0,0.0,0.0,0.0,0.0,0.0
41,3027.0,8176.0,5.402048232573505,0.0017852109162503319,0.001638650785791672,0.8795781786638075,-0.10765743702809746,0.0,3.0,-0.10765743702809746,10.138895290056958,8.685360912161041,0.0008912191989962815,293.0,274.0,4.802047781569966,0.1386861313868613,0.309255079006772,2899.0,8176.0,17.0,18.0,0.0,0.0,0.0,1.0,,0.0,0.002201565557729941,0.0,0.0,0.0,0.0,0.0,0.0,0.0,0.0,0.0,0.0
42,3027.0,8176.0,5.402048232573505,0.0017852109162503319,0.001638650785791672,0.8795781786638075,-0.10765743702809746,0.0,3.0,-0.10765743702809746,10.138895290056958,8.685360912161041,0.0008912191989962815,293.0,274.0,4.802047781569966,0.1386861313868613,0.309255079006772,2899.0,8176.0,17.0,18.0,0.0,0.0,0.0,1.0,,0.0,0.002201565557729941,0.0,0.0,0.0,0.0,0.0,0.0,0.0,0.0,0.0,0.0
43,3027.0,8176.0,5.402048232573505,0.0017852109162503319,0.001638650785791672,0.8795781786638075,-0.10765743702809746,0.0,3.0,-0.10765743702809746,10.138895290056958,8.685360912161041,0.0008912191989962815,293.0,274.0,4.802047781569966,0.1386861313868613,0.309255079006772,2899.0,8176.0,17.0,18.0,0.0,0.0,0.0,1.0,,0.0,0.002201565557729941,0.0,0.0,0.0,0.0,0.0,0.0,0.0,0.0,0.0,0.0
44,3027.0,8176.0,5.402048232573505,0.0017852109162503319,0.001638650785791672,0.8795781786638075,-0.10765743702809746,0.0,3.0,-0.10765743702809746,10.138895290056958,8.685360912161041,0.0008912191989962815,293.0,274.0,4.802047781569966,0.1386861313868613,0.309255079006772,2899.0,8176.0,17.0,18.0,0.0,0.0,0.0,1.0,,0.0,0.002201565557729941,0.0,0.0,0.0,0.0,0.0,0.0,0.0,0.0,0.0,0.0
45,3027.0,8176.0,5.402048232573505,0.0017852109162503319,0.001638650785791672,0.8795781786638075,-0.10765743702809746,0.0,3.0,-0.10765743702809746,10.138895290056958,8.685360912161041,0.0008912191989962815,293.0,274.0,4.802047781569966,0.1386861313868613,0.309255079006772,2899.0,8176.0,17.0,18.0,0.0,0.0,0.0,1.0,,0.0,0.002201565557729941,0.0,0.0,0.0,0.0,0.0,0.0,0.0,0.0,0.0,0.0
46,3027.0,8176.0,5.402048232573505,0.0017852109162503319,0.001638650785791672,0.8795781786638075,-0.10765743702809746,0.0,3.0,-0.10765743702809746,10.138895290056958,8.685360912161041,0.0008912191989962815,293.0,274.0,4.802047781569966,0.1386861313868613,0.309255079006772,2899.0,8176.0,17.0,18.0,0.0,0.0,0.0,1.0,,0.0,0.002201565557729941,0.0,0.0,0.0,0.0,0.0,0.0,0.0,0.0,0.0,0.0
47,3041.0,8202.0,5.394278197961197,0.0017744336177503938,0.0016327738033636524,0.8815426642727523,-0.10696886907465508,0.0,3.0,-0.10696886907465508,10.146577220107673,8.693888620743522,0.0008858437050326455,293.0,274.0,4.836177474402731,0.1386861313868613,0.309255079006772,2911.0,8202.0,19.0,20.0,0.0,0.0,0.0,1.0,0.0,0.0,0.00243842965130456,0.0,0.0,0.0,0.0,0.0,0.0,0.0,0.0,0.0,0.0
48,3041.0,8202.0,5.394278197961197,0.0017744336177503938,0.0016327738033636524,0.8815426642727523,-0.10696886907465508,0.0,3.0,-0.10696886907465508,10.146577220107673,8.693888620743522,0.0008858437050326455,293.0,274.0,4.836177474402731,0.1386861313868613,0.309255079006772,2911.0,8202.0,19.0,20.0,0.0,0.0,0.0,1.0,,0.0,0.00243842965130456,0.0,0.0,0.0,0.0,0.0,0.0,0.0,0.0,0.0,0.0
49,3041.0,8202.0,5.394278197961197,0.0017744336177503938,0.0016327738033636524,0.8815426642727523,-0.10696886907465508,0.0,3.0,-0.10696886907465508,10.146577220107673,8.693888620743522,0.0008858437050326455,293.0,274.0,4.836177474402731,0.1386861313868613,0.309255079006772,2911.0,8202.0,19.0,20.0,0.0,0.0,0.0,1.0,,0.0,0.00243842965130456,0.0,0.0,0.0,0.0,0.0,0.0,0.0,0.0,0.0,0.0
50,3041.0,8202.0,5.394278197961197,0.0017744336177503938,0.0016327738033636524,0.8815426642727523,-0.10696886907465508,0.0,3.0,-0.10696886907465508,10.146577220107673,8.693888620743522,0.0008858437050326455,293.0,274.0,4.836177474402731,0.1386861313868613,0.309255079006772,2911.0,8202.0,19.0,20.0,0.0,0.0,0.0,1.0,,0.0,0.00243842965130456,0.0,0.0,0.0,0.0,0.0,0.0,0.0,0.0,0.0,0.0
51,3041.0,8202.0,5.394278197961197,0.0017744336177503938,0.0016327738033636524,0.8815426642727523,-0.10696886907465508,0.0,3.0,-0.10696886907465508,10.146577220107673,8.693888620743522,0.0008858437050326455,293.0,274.0,4.836177474402731,0.1386861313868613,0.309255079006772,2911.0,8202.0,19.0,20.0,0.0,0.0,0.0,1.0,,0.0,0.00243842965130456,0.0,0.0,0.0,0.0,0.0,0.0,0.0,0.0,0.0,0.0
52,3041.0,8202.0,5.394278197961197,0.0017744336177503938,0.0016327738033636524,0.8815426642727523,-0.10696886907465508,0.0,3.0,-0.10696886907465508,10.146577220107673,8.693888620743522,0.0008858437050326455,293.0,274.0,4.836177474402731,0.1386861313868613,0.309255079006772,2911.0,8202.0,19.0,20.0,0.0,0.0,0.0,1.0,,0.0,0.00243842965130456,0.0,0.0,0.0,0.0,0.0,0.0,0.0,0.0,0.0,0.0
53,3041.0,8202.0,5.394278197961197,0.0017744336177503938,0.0016327738033636524,0.8815426642727523,-0.10696886907465508,0.0,3.0,-0.10696886907465508,10.146577220107673,8.693888620743522,0.0008858437050326455,293.0,274.0,4.836177474402731,0.1386861313868613,0.309255079006772,2911.0,8202.0,19.0,20.0,0.0,0.0,0.0,1.0,,0.0,0.00243842965130456,0.0,0.0,0.0,0.0,0.0,0.0,0.0,0.0,0.0,0.0
54,3041.0,8202.0,5.394278197961197,0.0017744336177503938,0.0016327738033636524,0.8815426642727523,-0.10696886907465508,0.0,3.0,-0.10696886907465508,10.146577220107673,8.693888620743522,0.0008858437050326455,293.0,274.0,4.836177474402731,0.1386861313868613,0.309255079006772,2911.0,8202.0,19.0,20.0,0.0,0.0,0.0,1.0,,0.0,0.00243842965130456,0.0,0.0,0.0,0.0,0.0,0.0,0.0,0.0,0.0,0.0
55,3041.0,8202.0,5.394278197961197,0.0017744336177503938,0.0016327738033636524,0.8815426642727523,-0.10696886907465508,0.0,3.0,-0.10696886907465508,10.146577220107673,8.693888620743522,0.0008858437050326455,293.0,274.0,4.836177474402731,0.1386861313868613,0.309255079006772,2911.0,8202.0,19.0,20.0,0.0,0.0,0.0,1.0,,0.0,0.00243842965130456,0.0,0.0,0.0,0.0,0.0,0.0,0.0,0.0,0.0,0.0
56,3041.0,8202.0,5.394278197961197,0.0017744336177503938,0.0016327738033636524,0.8815426642727523,-0.10696886907465508,0.0,3.0,-0.10696886907465508,10.146577220107673,8.693888620743522,0.0008858437050326455,293.0,274.0,4.836177474402731,0.1386861313868613,0.309255079006772,2911.0,8202.0,19.0,20.0,0.0,0.0,0.0,1.0,,0.0,0.00243842965130456,0.0,0.0,0.0,0.0,0.0,0.0,0.0,0.0,0.0,0.0
57,3088.0,8283.0,5.364637305699482,0.0017378157776804283,0.0016106562980177487,0.8880265556859464,-0.10389205799085297,0.0,3.0,-0.10389205799085297,10.171338457717736,8.717090363010774,0.0008675778208810975,293.0,274.0,4.9419795221843,0.1386861313868613,0.309255079006772,2945.0,8283.0,27.0,28.0,0.0,0.0,0.0,1.0,0.0,0.0,0.003380417723047205,0.0,0.0,0.0,0.0,0.0,0.0,0.0,0.0,0.0,0.0
58,3088.0,8283.0,5.364637305699482,0.0017378157776804283,0.0016106562980177487,0.8880265556859464,-0.10389205799085297,0.0,3.0,-0.10389205799085297,10.171338457717736,8.717090363010774,0.0008675778208810975,293.0,274.0,4.9419795221843,0.1386861313868613,0.309255079006772,2945.0,8283.0,27.0,28.0,0.0,0.0,0.0,1.0,,0.0,0.003380417723047205,0.0,0.0,0.0,0.0,0.0,0.0,0.0,0.0,0.0,0.0
59,3088.0,8283.0,5.364637305699482,0.0017378157776804283,0.0016106562980177487,0.8880265556859464,-0.10389205799085297,0.0,3.0,-0.10389205799085297,10.171338457717736,8.717090363010774,0.0008675778208810975,293.0,274.0,4.9419795221843,0.1386861313868613,0.309255079006772,2945.0,8283.0,27.0,28.0,0.0,0.0,0.0,1.0,,0.0,0.003380417723047205,0.0,0.0,0.0,0.0,0.0,0.0,0.0,0.0,0.0,0.0
60,3088.0,8283.0,5.364637305699482,0.0017378157776804283,0.0016106562980177487,0.8880265556859464,-0.10389205799085297,0.0,3.0,-0.10389205799085297,10.171338457717736,8.717090363010774,0.0008675778208810975,293.0,274.0,4.9419795221843,0.1386861313868613,0.309255079006772,2945.0,8283.0,27.0,28.0,0.0,0.0,0.0,1.0,,0.0,0.003380417723047205,0.0,0.0,0.0,0.0,0.0,0.0,0.0,0.0,0.0,0.0
61,3088.0,8283.0,5.364637305699482,0.0017378157776804283,0.0016106562980177487,0.8880265556859464,-0.10389205799085297,0.0,3.0,-0.10389205799085297,10.171338457717736,8.717090363010774,0.0008675778208810975,293.0,274.0,4.9419795221843,0.1386861313868613,0.309255079006772,2945.0,8283.0,27.0,28.0,0.0,0.0,0.0,1.0,,0.0,0.003380417723047205,0.0,0.0,0.0,0.0,0.0,0.0,0.0,0.0,0.0,0.0
62,3088.0,8283.0,5.364637305699482,0.0017378157776804283,0.0016106562980177487,0.8880265556859464,-0.10389205799085297,0.0,3.0,-0.10389205799085297,10.171338457717736,8.717090363010774,0.0008675778208810975,293.0,274.0,4.9419795221843,0.1386861313868613,0.309255079006772,2945.0,8283.0,27.0,28.0,0.0,0.0,0.0,1.0,,0.0,0.003380417723047205,0.0,0.0,0.0,0.0,0.0,0.0,0.0,0.0,0.0,0.0
63,3106.0,8316.0,5.354797166773986,0.0017245723564489489,0.0016036029558855595,0.89378459219322,-0.10483035944647577,0.0,3.0,-0.10483035944647577,10.179437924261798,8.725610923566688,0.0008609719923924324,293.0,274.0,4.986348122866894,0.1386861313868613,0.309255079006772,2960.0,8316.0,30.0,32.0,0.0,0.0,0.0,1.0,0.0,0.0,0.003848003848003848,0.0,0.0,0.0,0.0,0.0,0.0,0.0,0.0,0.0,0.0
64,3106.0,8316.0,5.354797166773986,0.0017245723564489489,0.0016036029558855595,0.89378459219322,-0.10483035944647577,0.0,3.0,-0.10483035944647577,10.179437924261798,8.725610923566688,0.0008609719923924324,293.0,274.0,4.986348122866894,0.1386861313868613,0.309255079006772,2960.0,8316.0,30.0,32.0,0.0,0.0,0.0,1.0,,0.0,0.003848003848003848,0.0,0.0,0.0,0.0,0.0,0.0,0.0,0.0,0.0,0.0
65,3106.0,8316.0,5.354797166773986,0.0017245723564489489,0.0016036029558855595,0.89378459219322,-0.10483035944647577,0.0,3.0,-0.10483035944647577,10.179437924261798,8.725610923566688,0.0008609719923924324,293.0,274.0,4.986348122866894,0.1386861313868613,0.309255079006772,2960.0,8316.0,30.0,32.0,0.0,0.0,0.0,1.0,,0.0,0.003848003848003848,0.0,0.0,0.0,0.0,0.0,0.0,0.0,0.0,0.0,0.0
66,3106.0,8316.0,5.354797166773986,0.0017245723564489489,0.0016036029558855595,0.89378459219322,-0.10483035944647577,0.0,3.0,-0.10483035944647577,10.179437924261798,8.725610923566688,0.0008609719923924324,293.0,274.0,4.986348122866894,0.1386861313868613,0.309255079006772,2960.0,8316.0,30.0,32.0,0.0,0.0,0.0,1.0,,0.0,0.003848003848003848,0.0,0.0,0.0,0.0,0.0,0.0,0.0,0.0,0.0,0.0
67,3106.0,8316.0,5.354797166773986,0.0017245723564489489,0.0016036029558855595,0.89378459219322,-0.10483035944647577,0.0,3.0,-0.10483035944647577,10.179437924261798,8.725610923566688,0.0008609719923924324,293.0,274.0,4.986348122866894,0.1386861313868613,0.309255079006772,2960.0,8316.0,30.0,32.0,0.0,0.0,0.0,1.0,,0.0,0.003848003848003848,0.0,0.0,0.0,0.0,0.0,0.0,0.0,0.0,0.0,0.0
68,3106.0,8316.0,5.354797166773986,0.0017245723564489489,0.0016036029558855595,0.89378459219322,-0.10483035944647577,0.0,3.0,-0.10483035944647577,10.179437924261798,8.725610923566688,0.0008609719923924324,293.0,274.0,4.986348122866894,0.1386861313868613,0.309255079006772,2960.0,8316.0,30.0,32.0,0.0,0.0,0.0,1.0,,0.0,0.003848003848003848,0.0,0.0,0.0,0.0,0.0,0.0,0.0,0.0,0.0,0.0
69,3106.0,8316.0,5.354797166773986,0.0017245723564489489,0.0016036029558855595,0.89378459219322,-0.10483035944647577,0.0,3.0,-0.10483035944647577,10.179437924261798,8.725610923566688,0.0008609719923924324,293.0,274.0,4.986348122866894,0.1386861313868613,0.309255079006772,2960.0,8316.0,30.0,32.0,0.0,0.0,0.0,1.0,,0.0,0.003848003848003848,0.0,0.0,0.0,0.0,0.0,0.0,0.0,0.0,0.0,0.0
70,3106.0,8316.0,5.354797166773986,0.0017245723564489489,0.0016036029558855595,0.89378459219322,-0.10483035944647577,0.0,3.0,-0.10483035944647577,10.179437924261798,8.725610923566688,0.0008609719923924324,293.0,274.0,4.986348122866894,0.1386861313868613,0.309255079006772,2960.0,8316.0,30.0,32.0,0.0,0.0,0.0,1.0,,0.0,0.003848003848003848,0.0,0.0,0.0,0.0,0.0,0.0,0.0,0.0,0.0,0.0
71,3119.0,8339.0,5.347226675216415,0.0017149540331034047,0.0015978315903356442,0.8934914091878497,-0.10486632231355181,0.0,3.0,-0.10486632231355181,10.186513455061066,8.736538949292292,0.0008561741525453783,293.0,274.0,5.006825938566553,0.1386861313868613,0.309255079006772,2969.0,8339.0,30.0,32.0,0.0,0.0,0.0,1.0,0.0,0.0,0.0038373905744094015,0.0,0.0,0.0,0.0,0.0,0.0,0.0,0.0,0.0,0.0
72,3119.0,8339.0,5.347226675216415,0.0017149540331034047,0.0015978315903356442,0.8934914091878497,-0.10486632231355181,0.0,3.0,-0.10486632231355181,10.186513455061066,8.736538949292292,0.0008561741525453783,293.0,274.0,5.006825938566553,0.1386861313868613,0.309255079006772,2969.0,8339.0,30.0,32.0,0.0,0.0,0.0,1.0,,0.0,0.0038373905744094015,0.0,0.0,0.0,0.0,0.0,0.0,0.0,0.0,0.0,0.0
73,3119.0,8339.0,5.347226675216415,0.0017149540331034047,0.0015978315903356442,0.8934914091878497,-0.10486632231355181,0.0,3.0,-0.10486632231355181,10.186513455061066,8.736538949292292,0.0008561741525453783,293.0,274.0,5.006825938566553,0.1386861313868613,0.309255079006772,2969.0,8339.0,30.0,32.0,0.0,0.0,0.0,1.0,,0.0,0.0038373905744094015,0.0,0.0,0.0,0.0,0.0,0.0,0.0,0.0,0.0,0.0
74,3131.0,8360.0,5.340146917917598,0.001706117226171757,0.0015929857237608792,0.8954481603658218,-0.1047746750337139,0.0,3.0,-0.1047746750337139,10.191977725875665,8.742188164203657,0.0008517660783088231,293.0,274.0,5.034129692832765,0.1386861313868613,0.309255079006772,2979.0,8360.0,32.0,34.0,0.0,0.0,0.0,1.0,0.0,0.0,0.004066985645933014,0.0,0.0,0.0,0.0,0.0,0.0,0.0,0.0,0.0,0.0
75,3131.0,8360.0,5.340146917917598,0.001706117226171757,0.0015929857237608792,0.8954481603658218,-0.1047746750337139,0.0,3.0,-0.1047746750337139,10.191977725875665,8.742188164203657,0.0008517660783088231,293.0,274.0,5.034129692832765,0.1386861313868613,0.309255079006772,2979.0,8360.0,32.0,34.0,0.0,0.0,0.0,1.0,,0.0,0.004066985645933014,0.0,0.0,0.0,0.0,0.0,0.0,0.0,0.0,0.0,0.0
76,3131.0,8360.0,5.340146917917598,0.001706117226171757,0.0015929857237608792,0.8954481603658218,-0.1047746750337139,0.0,3.0,-0.1047746750337139,10.191977725875665,8.742188164203657,0.0008517660783088231,293.0,274.0,5.034129692832765,0.1386861313868613,0.309255079006772,2979.0,8360.0,32.0,34.0,0.0,0.0,0.0,1.0,,0.0,0.004066985645933014,0.0,0.0,0.0,0.0,0.0,0.0,0.0,0.0,0.0,0.0
77,3131.0,8360.0,5.340146917917598,0.001706117226171757,0.0015929857237608792,0.8954481603658218,-0.1047746750337139,0.0,3.0,-0.1047746750337139,10.191977725875665,8.742188164203657,0.0008517660783088231,293.0,274.0,5.034129692832765,0.1386861313868613,0.309255079006772,2979.0,8360.0,32.0,34.0,0.0,0.0,0.0,1.0,,0.0,0.004066985645933014,0.0,0.0,0.0,0.0,0.0,0.0,0.0,0.0,0.0,0.0
78,3160.0,8412.0,5.324050632911392,0.0016853594912666645,0.001580479443303234,0.8993793247771723,-0.10472726769450956,0.0,3.0,-0.10472726769450956,10.206711413265744,8.756813163449804,0.0008414116327511617,293.0,274.0,5.09556313993174,0.1386861313868613,0.309255079006772,3000.0,8412.0,36.0,38.0,0.0,0.0,0.0,1.0,0.0,0.0,0.00451735615786971,0.0,0.0,0.0,0.0,0.0,0.0,0.0,0.0,0.0,0.0
79,3160.0,8412.0,5.324050632911392,0.0016853594912666645,0.001580479443303234,0.8993793247771723,-0.10472726769450956,0.0,3.0,-0.10472726769450956,10.206711413265744,8.756813163449804,0.0008414116327511617,293.0,274.0,5.09556313993174,0.1386861313868613,0.309255079006772,3000.0,8412.0,36.0,38.0,0.0,0.0,0.0,1.0,,0.0,0.00451735615786971,0.0,0.0,0.0,0.0,0.0,0.0,0.0,0.0,0.0,0.0
80,3178.0,8446.0,5.31529263687854,0.001673054024827995,0.001573777684356937,0.904317060628325,-0.10493739516522496,0.0,3.0,-0.10493739516522496,10.214967696235998,8.761668733195032,0.0008352736580669257,293.0,274.0,5.143344709897611,0.1386861313868613,0.309255079006772,3016.0,8446.0,40.0,42.0,0.0,0.0,0.0,1.0,0.0,0.0,0.0049727681742836845,0.0,0.0,0.0,0.0,0.0,0.0,0.0,0.0,0.0,0.0
81,3178.0,8446.0,5.31529263687854,0.001673054024827995,0.001573777684356937,0.904317060628325,-0.10493739516522496,0.0,3.0,-0.10493739516522496,10.214967696235998,8.761668733195032,0.0008352736580669257,293.0,274.0,5.143344709897611,0.1386861313868613,0.309255079006772,3016.0,8446.0,40.0,42.0,0.0,0.0,0.0,1.0,,0.0,0.0049727681742836845,0.0,0.0,0.0,0.0,0.0,0.0,0.0,0.0,0.0,0.0
82,3178.0,8446.0,5.31529263687854,0.001673054024827995,0.001573777684356937,0.904317060628325,-0.10493739516522496,0.0,3.0,-0.10493739516522496,10.214967696235998,8.761668733195032,0.0008352736580669257,293.0,274.0,5.143344709897611,0.1386861313868613,0.309255079006772,3016.0,8446.0,40.0,42.0,0.0,0.0,0.0,1.0,,0.0,0.0049727681742836845,0.0,0.0,0.0,0.0,0.0,0.0,0.0,0.0,0.0,0.0
83,3178.0,8446.0,5.31529263687854,0.001673054024827995,0.001573777684356937,0.904317060628325,-0.10493739516522496,0.0,3.0,-0.10493739516522496,10.214967696235998,8.761668733195032,0.0008352736580669257,293.0,274.0,5.143344709897611,0.1386861313868613,0.309255079006772,3016.0,8446.0,40.0,42.0,0.0,0.0,0.0,1.0,,0.0,0.0049727681742836845,0.0,0.0,0.0,0.0,0.0,0.0,0.0,0.0,0.0,0.0
84,3178.0,8446.0,5.31529263687854,0.001673054024827995,0.001573777684356937,0.904317060628325,-0.10493739516522496,0.0,3.0,-0.10493739516522496,10.214967696235998,8.761668733195032,0.0008352736580669257,293.0,274.0,5.143344709897611,0.1386861313868613,0.309255079006772,3016.0,8446.0,40.0,42.0,0.0,0.0,0.0,1.0,,0.0,0.0049727681742836845,0.0,0.0,0.0,0.0,0.0,0.0,0.0,0.0,0.0,0.0
85,3178.0,8446.0,5.31529263687854,0.001673054024827995,0.001573777684356937,0.904317060628325,-0.10493739516522496,0.0,3.0,-0.10493739516522496,10.214967696235998,8.761668733195032,0.0008352736580669257,293.0,274.0,5.143344709897611,0.1386861313868613,0.309255079006772,3016.0,8446.0,40.0,42.0,0.0,0.0,0.0,1.0,,0.0,0.0049727681742836845,0.0,0.0,0.0,0.0,0.0,0.0,0.0,0.0,0.0,0.0
86,3178.0,8446.0,5.31529263687854,0.001673054024827995,0.001573777684356937,0.904317060628325,-0.10493739516522496,0.0,3.0,-0.10493739516522496,10.214967696235998,8.761668733195032,0.0008352736580669257,293.0,274.0,5.143344709897611,0.1386861313868613,0.309255079006772,3016.0,8446.0,40.0,42.0,0.0,0.0,0.0,1.0,,0.0,0.0049727681742836845,0.0,0.0,0.0,0.0,0.0,0.0,0.0,0.0,0.0,0.0
87,3178.0,8446.0,5.31529263687854,0.001673054024827995,0.001573777684356937,0.904317060628325,-0.10493739516522496,0.0,3.0,-0.10493739516522496,10.214967696235998,8.761668733195032,0.0008352736580669257,293.0,274.0,5.143344709897611,0.1386861313868613,0.309255079006772,3016.0,8446.0,40.0,42.0,0.0,0.0,0.0,1.0,,0.0,0.0049727681742836845,0.0,0.0,0.0,0.0,0.0,0.0,0.0,0.0,0.0,0.0
88,3249.0,8568.0,5.274238227146815,0.0016238418187028369,0.0015435651167371106,0.9187278495472396,-0.10538398967446277,0.0,3.0,-0.10538398967446277,10.243819128042418,8.77639360963246,0.0008107236821974533,293.0,274.0,5.313993174061434,0.1386861313868613,0.309255079006772,3068.0,8568.0,56.0,58.0,0.0,0.0,0.0,1.0,0.0,0.0,0.00676937441643324,0.0,0.0,0.0,0.0,0.0,0.0,0.0,0.0,0.0,0.0
89,3249.0,8568.0,5.274238227146815,0.0016238418187028369,0.0015435651167371106,0.9187278495472396,-0.10538398967446277,0.0,3.0,-0.10538398967446277,10.243819128042418,8.77639360963246,0.0008107236821974533,293.0,274.0,5.313993174061434,0.1386861313868613,0.309255079006772,3068.0,8568.0,56.0,58.0,0.0,0.0,0.0,1.0,,0.0,0.00676937441643324,0.0,0.0,0.0,0.0,0.0,0.0,0.0,0.0,0.0,0.0
90,3252.0,8575.0,5.273677736777368,0.0016221709433335491,0.0015428918139429966,0.9189726826972209,-0.10558954190249804,0.0,3.0,-0.10558954190249804,10.245433815774543,8.778199299443468,0.0008098904789785905,293.0,274.0,5.320819112627986,0.1386861313868613,0.309255079006772,3072.0,8575.0,56.0,58.0,0.0,0.0,0.0,1.0,0.0,0.0,0.006763848396501458,0.0,0.0,0.0,0.0,0.0,0.0,0.0,0.0,0.0,0.0
91,3252.0,8575.0,5.273677736777368,0.0016221709433335491,0.0015428918139429966,0.9189726826972209,-0.10558954190249804,0.0,3.0,-0.10558954190249804,10.245433815774543,8.778199299443468,0.0008098904789785905,293.0,274.0,5.320819112627986,0.1386861313868613,0.309255079006772,3072.0,8575.0,56.0,58.0,0.0,0.0,0.0,1.0,,0.0,0.006763848396501458,0.0,0.0,0.0,0.0,0.0,0.0,0.0,0.0,0.0,0.0
92,3252.0,8575.0,5.273677736777368,0.0016221709433335491,0.0015428918139429966,0.9189726826972209,-0.10558954190249804,0.0,3.0,-0.10558954190249804,10.245433815774543,8.778199299443468,0.0008098904789785905,293.0,274.0,5.320819112627986,0.1386861313868613,0.309255079006772,3072.0,8575.0,56.0,58.0,0.0,0.0,0.0,1.0,,0.0,0.006763848396501458,0.0,0.0,0.0,0.0,0.0,0.0,0.0,0.0,0.0,0.0
93,3252.0,8575.0,5.273677736777368,0.0016221709433335491,0.0015428918139429966,0.9189726826972209,-0.10558954190249804,0.0,3.0,-0.10558954190249804,10.245433815774543,8.778199299443468,0.0008098904789785905,293.0,274.0,5.320819112627986,0.1386861313868613,0.309255079006772,3072.0,8575.0,56.0,58.0,0.0,0.0,0.0,1.0,,0.0,0.006763848396501458,0.0,0.0,0.0,0.0,0.0,0.0,0.0,0.0,0.0,0.0
94,3274.0,8617.0,5.263897373243738,0.001608279063013669,0.0015367621602827815,0.922823730536976,-0.10571161876051734,0.0,3.0,-0.10571161876051734,10.255431902670384,8.793543622811605,0.0008029610014893075,293.0,274.0,5.368600682593857,0.1386861313868613,0.309255079006772,3089.0,8617.0,58.0,61.0,0.0,0.0,0.0,1.0,0.0,0.0,0.007079029824764999,0.0,0.0,0.0,0.0,0.0,0.0,0.0,0.0,0.0,0.0
95,3274.0,8617.0,5.263897373243738,0.001608279063013669,0.0015367621602827815,0.922823730536976,-0.10571161876051734,0.0,3.0,-0.10571161876051734,10.255431902670384,8.793543622811605,0.0008029610014893075,293.0,274.0,5.368600682593857,0.1386861313868613,0.309255079006772,3089.0,8617.0,58.0,61.0,0.0,0.0,0.0,1.0,,0.0,0.007079029824764999,0.0,0.0,0.0,0.0,0.0,0.0,0.0,0.0,0.0,0.0
96,3283.0,8636.0,5.2610417301248855,0.0016029986990020982,0.0015340086735418448,0.9242800682902492,-0.10615387894941902,0.0,3.0,-0.10615387894941902,10.25931381554177,8.795679660292116,0.000800327404978749,293.0,274.0,5.392491467576792,0.1386861313868613,0.309255079006772,3098.0,8636.0,59.0,63.0,0.0,0.0,0.0,1.0,0.0,0.0,0.0072950440018527095,0.0,0.0,0.0,0.0,0.0,0.0,0.0,0.0,0.0,0.0
97,3283.0,8636.0,5.2610417301248855,0.0016029986990020982,0.0015340086735418448,0.9242800682902492,-0.10615387894941902,0.0,3.0,-0.10615387894941902,10.25931381554177,8.795679660292116,0.000800327404978749,293.0,274.0,5.392491467576792,0.1386861313868613,0.309255079006772,3098.0,8636.0,59.0,63.0,0.0,0.0,0.0,1.0,,0.0,0.0072950440018527095,0.0,0.0,0.0,0.0,0.0,0.0,0.0,0.0,0.0,0.0
98,3283.0,8636.0,5.2610417301248855,0.0016029986990020982,0.0015340086735418448,0.9242800682902492,-0.10615387894941902,0.0,3.0,-0.10615387894941902,10.25931381554177,8.795679660292116,0.000800327404978749,293.0,274.0,5.392491467576792,0.1386861313868613,0.309255079006772,3098.0,8636.0,59.0,63.0,0.0,0.0,0.0,1.0,,0.0,0.0072950440018527095,0.0,0.0,0.0,0.0,0.0,0.0,0.0,0.0,0.0,0.0
99,3283.0,8636.0,5.2610417301248855,0.0016029986990020982,0.0015340086735418448,0.9242800682902492,-0.10615387894941902,0.0,3.0,-0.10615387894941902,10.25931381554177,8.795679660292116,0.000800327404978749,293.0,274.0,5.392491467576792,0.1386861313868613,0.309255079006772,3098.0,8636.0,59.0,63.0,0.0,0.0,0.0,1.0,,0.0,0.0072950440018527095,0.0,0.0,0.0,0.0,0.0,0.0,0.0,0.0,0.0,0.0
100,3290.0,8649.0,5.2577507598784194,0.0015985864274485923,0.001531593263264394,0.92524915074624,-0.10634382024799133,0.0,3.0,-0.10634382024799133,10.262157899820608,8.797220910828536,0.000798126403118966,293.0,274.0,5.409556313993174,0.1386861313868613,0.309255079006772,3105.0,8649.0,60.0,64.0,0.0,0.0,0.0,1.0,0.0,0.0,0.007399699387212394,0.0,0.0,0.0,0.0,0.0,0.0,0.0,0.0,0.0,0.0
101,3290.0,8649.0,5.2577507598784194,0.0015985864274485923,0.001531593263264394,0.92524915074624,-0.10634382024799133,0.0,3.0,-0.10634382024799133,10.262157899820608,8.797220910828536,0.000798126403118966,293.0,274.0,5.409556313993174,0.1386861313868613,0.309255079006772,3105.0,8649.0,60.0,64.0,0.0,0.0,0.0,1.0,,0.0,0.007399699387212394,0.0,0.0,0.0,0.0,0.0,0.0,0.0,0.0,0.0,0.0
102,3290.0,8649.0,5.2577507598784194,0.0015985864274485923,0.001531593263264394,0.92524915074624,-0.10634382024799133,0.0,3.0,-0.10634382024799133,10.262157899820608,8.797220910828536,0.000798126403118966,293.0,274.0,5.409556313993174,0.1386861313868613,0.309255079006772,3105.0,8649.0,60.0,64.0,0.0,0.0,0.0,1.0,,0.0,0.007399699387212394,0.0,0.0,0.0,0.0,0.0,0.0,0.0,0.0,0.0,0.0
103,3290.0,8649.0,5.2577507598784194,0.0015985864274485923,0.001531593263264394,0.92524915074624,-0.10634382024799133,0.0,3.0,-0.10634382024799133,10.262157899820608,8.797220910828536,0.000798126403118966,293.0,274.0,5.409556313993174,0.1386861313868613,0.309255079006772,3105.0,8649.0,60.0,64.0,0.0,0.0,0.0,1.0,,0.0,0.007399699387212394,0.0,0.0,0.0,0.0,0.0,0.0,0.0,0.0,0.0,0.0
104,3290.0,8649.0,5.2577507598784194,0.0015985864274485923,0.001531593263264394,0.92524915074624,-0.10634382024799133,0.0,3.0,-0.10634382024799133,10.262157899820608,8.797220910828536,0.000798126403118966,293.0,274.0,5.409556313993174,0.1386861313868613,0.309255079006772,3105.0,8649.0,60.0,64.0,0.0,0.0,0.0,1.0,,0.0,0.007399699387212394,0.0,0.0,0.0,0.0,0.0,0.0,0.0,0.0,0.0,0.0
105,3290.0,8649.0,5.2577507598784194,0.0015985864274485923,0.001531593263264394,0.92524915074624,-0.10634382024799133,0.0,3.0,-0.10634382024799133,10.262157899820608,8.797220910828536,0.000798126403118966,293.0,274.0,5.409556313993174,0.1386861313868613,0.309255079006772,3105.0,8649.0,60.0,64.0,0.0,0.0,0.0,1.0,,0.0,0.007399699387212394,0.0,0.0,0.0,0.0,0.0,0.0,0.0,0.0,0.0,0.0
106,3299.0,8667.0,5.254319490754774,0.0015931835933155774,0.0015291612477839316,0.9267132006099644,-0.10602180783208494,0.0,3.0,-0.10602180783208494,10.266465932146579,8.800037297364447,0.0007954315016050589,293.0,274.0,5.436860068259386,0.1386861313868613,0.309255079006772,3115.0,8667.0,61.0,65.0,0.0,0.0,0.0,1.0,0.0,0.0,0.007499711549555786,0.0,0.0,0.0,0.0,0.0,0.0,0.0,0.0,0.0,0.0
107,3299.0,8667.0,5.254319490754774,0.0015931835933155774,0.0015291612477839316,0.9267132006099644,-0.10602180783208494,0.0,3.0,-0.10602180783208494,10.266465932146579,8.800037297364447,0.0007954315016050589,293.0,274.0,5.436860068259386,0.1386861313868613,0.309255079006772,3115.0,8667.0,61.0,65.0,0.0,0.0,0.0,1.0,,0.0,0.007499711549555786,0.0,0.0,0.0,0.0,0.0,0.0,0.0,0.0,0.0,0.0
108,3305.0,8680.0,5.252647503782148,0.0015897843534449603,0.0015278761951655613,0.9281501883878356,-0.10577777805721696,0.0,3.0,-0.10577777805721696,10.269376047333783,8.801493207763821,0.000793736167407838,293.0,274.0,5.4573378839590445,0.1386861313868613,0.309255079006772,3123.0,8680.0,62.0,66.0,0.0,0.0,0.0,1.0,0.0,0.0,0.007603686635944701,0.0,0.0,0.0,0.0,0.0,0.0,0.0,0.0,0.0,0.0
109,3305.0,8680.0,5.252647503782148,0.0015897843534449603,0.0015278761951655613,0.9281501883878356,-0.10577777805721696,0.0,3.0,-0.10577777805721696,10.269376047333783,8.801493207763821,0.000793736167407838,293.0,274.0,5.4573378839590445,0.1386861313868613,0.309255079006772,3123.0,8680.0,62.0,66.0,0.0,0.0,0.0,1.0,,0.0,0.007603686635944701,0.0,0.0,0.0,0.0,0.0,0.0,0.0,0.0,0.0,0.0
110,3305.0,8680.0,5.252647503782148,0.0015897843534449603,0.0015278761951655613,0.9281501883878356,-0.10577777805721696,0.0,3.0,-0.10577777805721696,10.269376047333783,8.801493207763821,0.000793736167407838,293.0,274.0,5.4573378839590445,0.1386861313868613,0.309255079006772,3123.0,8680.0,62.0,66.0,0.0,0.0,0.0,1.0,,0.0,0.007603686635944701,0.0,0.0,0.0,0.0,0.0,0.0,0.0,0.0,0.0,0.0
111,3305.0,8680.0,5.252647503782148,0.0015897843534449603,0.0015278761951655613,0.9281501883878356,-0.10577777805721696,0.0,3.0,-0.10577777805721696,10.269376047333783,8.801493207763821,0.000793736167407838,293.0,274.0,5.4573378839590445,0.1386861313868613,0.309255079006772,3123.0,8680.0,62.0,66.0,0.0,0.0,0.0,1.0,,0.0,0.007603686635944701,0.0,0.0,0.0,0.0,0.0,0.0,0.0,0.0,0.0,0.0
112,3329.0,8719.0,5.238209672574347,0.0015739812718071954,0.001517332402117517,0.9291802747150972,-0.10511901218797011,0.0,3.0,-0.10511901218797011,10.28033001826621,8.810549914940381,0.000785851886816033,293.0,274.0,5.498293515358362,0.1386861313868613,0.309255079006772,3138.0,8719.0,64.0,68.0,0.0,0.0,0.0,1.0,0.0,0.0,0.007799059525174905,0.0,0.0,0.0,0.0,0.0,0.0,0.0,0.0,0.0,0.0
113,3329.0,8719.0,5.238209672574347,0.0015739812718071954,0.001517332402117517,0.9291802747150972,-0.10511901218797011,0.0,3.0,-0.10511901218797011,10.28033001826621,8.810549914940381,0.000785851886816033,293.0,274.0,5.498293515358362,0.1386861313868613,0.309255079006772,3138.0,8719.0,64.0,68.0,0.0,0.0,0.0,1.0,,0.0,0.007799059525174905,0.0,0.0,0.0,0.0,0.0,0.0,0.0,0.0,0.0,0.0
114,3337.0,8732.0,5.2334432124662875,0.0015687779413867766,0.0015145038433645385,0.930798462049713,-0.10477486251740917,0.0,3.0,-0.10477486251740917,10.283504166790605,8.811556254575805,0.0007832558893039053,293.0,274.0,5.515358361774744,0.1386861313868613,0.309255079006772,3145.0,8732.0,65.0,69.0,0.0,0.0,0.0,1.0,0.0,0.0,0.007901969766376546,0.0,0.0,0.0,0.0,0.0,0.0,0.0,0.0,0.0,0.0
115,3337.0,8732.0,5.2334432124662875,0.0015687779413867766,0.0015145038433645385,0.930798462049713,-0.10477486251740917,0.0,3.0,-0.10477486251740917,10.283504166790605,8.811556254575805,0.0007832558893039053,293.0,274.0,5.515358361774744,0.1386861313868613,0.309255079006772,3145.0,8732.0,65.0,69.0,0.0,0.0,0.0,1.0,,0.0,0.007901969766376546,0.0,0.0,0.0,0.0,0.0,0.0,0.0,0.0,0.0,0.0
116,3348.0,8753.0,5.228793309438471,0.001562232838194942,0.001511080658913384,0.9326511751871442,-0.10518203834317293,0.0,3.0,-0.10518203834317293,10.287855642417725,8.814183809689476,0.0007799909787615495,293.0,274.0,5.5426621160409555,0.1386861313868613,0.309255079006772,3155.0,8753.0,67.0,71.0,0.0,0.0,0.0,1.0,0.0,0.0,0.008111504626985034,0.0,0.0,0.0,0.0,0.0,0.0,0.0,0.0,0.0,0.0
117,3348.0,8753.0,5.228793309438471,0.001562232838194942,0.001511080658913384,0.9326511751871442,-0.10518203834317293,0.0,3.0,-0.10518203834317293,10.287855642417725,8.814183809689476,0.0007799909787615495,293.0,274.0,5.5426621160409555,0.1386861313868613,0.309255079006772,3155.0,8753.0,67.0,71.0,0.0,0.0,0.0,1.0,,0.0,0.008111504626985034,0.0,0.0,0.0,0.0,0.0,0.0,0.0,0.0,0.0,0.0
118,3348.0,8753.0,5.228793309438471,0.001562232838194942,0.001511080658913384,0.9326511751871442,-0.10518203834317293,0.0,3.0,-0.10518203834317293,10.287855642417725,8.814183809689476,0.0007799909787615495,293.0,274.0,5.5426621160409555,0.1386861313868613,0.309255079006772,3155.0,8753.0,67.0,71.0,0.0,0.0,0.0,1.0,,0.0,0.008111504626985034,0.0,0.0,0.0,0.0,0.0,0.0,0.0,0.0,0.0,0.0
119,3348.0,8753.0,5.228793309438471,0.001562232838194942,0.001511080658913384,0.9326511751871442,-0.10518203834317293,0.0,3.0,-0.10518203834317293,10.287855642417725,8.814183809689476,0.0007799909787615495,293.0,274.0,5.5426621160409555,0.1386861313868613,0.309255079006772,3155.0,8753.0,67.0,71.0,0.0,0.0,0.0,1.0,,0.0,0.008111504626985034,0.0,0.0,0.0,0.0,0.0,0.0,0.0,0.0,0.0,0.0
120,3348.0,8753.0,5.228793309438471,0.001562232838194942,0.001511080658913384,0.9326511751871442,-0.10518203834317293,0.0,3.0,-0.10518203834317293,10.287855642417725,8.814183809689476,0.0007799909787615495,293.0,274.0,5.5426621160409555,0.1386861313868613,0.309255079006772,3155.0,8753.0,67.0,71.0,0.0,0.0,0.0,1.0,,0.0,0.008111504626985034,0.0,0.0,0.0,0.0,0.0,0.0,0.0,0.0,0.0,0.0
121,3348.0,8753.0,5.228793309438471,0.001562232838194942,0.001511080658913384,0.9326511751871442,-0.10518203834317293,0.0,3.0,-0.10518203834317293,10.287855642417725,8.814183809689476,0.0007799909787615495,293.0,274.0,5.5426621160409555,0.1386861313868613,0.309255079006772,3155.0,8753.0,67.0,71.0,0.0,0.0,0.0,1.0,,0.0,0.008111504626985034,0.0,0.0,0.0,0.0,0.0,0.0,0.0,0.0,0.0,0.0
122,3348.0,8753.0,5.228793309438471,0.001562232838194942,0.001511080658913384,0.9326511751871442,-0.10518203834317293,0.0,3.0,-0.10518203834317293,10.287855642417725,8.814183809689476,0.0007799909787615495,293.0,274.0,5.5426621160409555,0.1386861313868613,0.309255079006772,3155.0,8753.0,67.0,71.0,0.0,0.0,0.0,1.0,,0.0,0.008111504626985034,0.0,0.0,0.0,0.0,0.0,0.0,0.0,0.0,0.0,0.0
123,3348.0,8753.0,5.228793309438471,0.001562232838194942,0.001511080658913384,0.9326511751871442,-0.10518203834317293,0.0,3.0,-0.10518203834317293,10.287855642417725,8.814183809689476,0.0007799909787615495,293.0,274.0,5.5426621160409555,0.1386861313868613,0.309255079006772,3155.0,8753.0,67.0,71.0,0.0,0.0,0.0,1.0,,0.0,0.008111504626985034,0.0,0.0,0.0,0.0,0.0,0.0,0.0,0.0,0.0,0.0
124,3364.0,8784.0,5.222354340071344,0.001552885620003373,0.0015054090921936144,0.9329646607174622,-0.10533402394933658,0.0,3.0,-0.10533402394933658,10.29555954033987,8.821606326345325,0.0007753283348485256,293.0,274.0,5.573378839590443,0.1386861313868613,0.309255079006772,3167.0,8784.0,68.0,72.0,0.0,0.0,0.0,1.0,0.0,0.0,0.00819672131147541,0.0,0.0,0.0,0.0,0.0,0.0,0.0,0.0,0.0,0.0
125,3364.0,8784.0,5.222354340071344,0.001552885620003373,0.0015054090921936144,0.9329646607174622,-0.10533402394933658,0.0,3.0,-0.10533402394933658,10.29555954033987,8.821606326345325,0.0007753283348485256,293.0,274.0,5.573378839590443,0.1386861313868613,0.309255079006772,3167.0,8784.0,68.0,72.0,0.0,0.0,0.0,1.0,,0.0,0.00819672131147541,0.0,0.0,0.0,0.0,0.0,0.0,0.0,0.0,0.0,0.0
126,3364.0,8784.0,5.222354340071344,0.001552885620003373,0.0015054090921936144,0.9329646607174622,-0.10533402394933658,0.0,3.0,-0.10533402394933658,10.29555954033987,8.821606326345325,0.0007753283348485256,293.0,274.0,5.573378839590443,0.1386861313868613,0.309255079006772,3167.0,8784.0,68.0,72.0,0.0,0.0,0.0,1.0,,0.0,0.00819672131147541,0.0,0.0,0.0,0.0,0.0,0.0,0.0,0.0,0.0,0.0
127,3364.0,8784.0,5.222354340071344,0.001552885620003373,0.0015054090921936144,0.9329646607174622,-0.10533402394933658,0.0,3.0,-0.10533402394933658,10.29555954033987,8.821606326345325,0.0007753283348485256,293.0,274.0,5.573378839590443,0.1386861313868613,0.309255079006772,3167.0,8784.0,68.0,72.0,0.0,0.0,0.0,1.0,,0.0,0.00819672131147541,0.0,0.0,0.0,0.0,0.0,0.0,0.0,0.0,0.0,0.0
128,3364.0,8784.0,5.222354340071344,0.001552885620003373,0.0015054090921936144,0.9329646607174622,-0.10533402394933658,0.0,3.0,-0.10533402394933658,10.29555954033987,8.821606326345325,0.0007753283348485256,293.0,274.0,5.573378839590443,0.1386861313868613,0.309255079006772,3167.0,8784.0,68.0,72.0,0.0,0.0,0.0,1.0,,0.0,0.00819672131147541,0.0,0.0,0.0,0.0,0.0,0.0,0.0,0.0,0.0,0.0
129,3364.0,8784.0,5.222354340071344,0.001552885620003373,0.0015054090921936144,0.9329646607174622,-0.10533402394933658,0.0,3.0,-0.10533402394933658,10.29555954033987,8.821606326345325,0.0007753283348485256,293.0,274.0,5.573378839590443,0.1386861313868613,0.309255079006772,3167.0,8784.0,68.0,72.0,0.0,0.0,0.0,1.0,,0.0,0.00819672131147541,0.0,0.0,0.0,0.0,0.0,0.0,0.0,0.0,0.0,0.0
130,3391.0,8831.0,5.208493069890888,0.0015364286341861023,0.0014949260236354247,0.9340783796284899,-0.10591113773926139,0.0,3.0,-0.10591113773926139,10.306831389699319,8.831855132781275,0.0007671181221894547,293.0,274.0,5.624573378839591,0.1386861313868613,0.309255079006772,3185.0,8831.0,71.0,75.0,0.0,0.0,0.0,1.0,0.0,0.0,0.008492809421356586,0.0,0.0,0.0,0.0,0.0,0.0,0.0,0.0,0.0,0.0
131,3391.0,8831.0,5.208493069890888,0.0015364286341861023,0.0014949260236354247,0.9340783796284899,-0.10591113773926139,0.0,3.0,-0.10591113773926139,10.306831389699319,8.831855132781275,0.0007671181221894547,293.0,274.0,5.624573378839591,0.1386861313868613,0.309255079006772,3185.0,8831.0,71.0,75.0,0.0,0.0,0.0,1.0,,0.0,0.008492809421356586,0.0,0.0,0.0,0.0,0.0,0.0,0.0,0.0,0.0,0.0
132,3391.0,8831.0,5.208493069890888,0.0015364286341861023,0.0014949260236354247,0.9340783796284899,-0.10591113773926139,0.0,3.0,-0.10591113773926139,10.306831389699319,8.831855132781275,0.0007671181221894547,293.0,274.0,5.624573378839591,0.1386861313868613,0.309255079006772,3185.0,8831.0,71.0,75.0,0.0,0.0,0.0,1.0,,0.0,0.008492809421356586,0.0,0.0,0.0,0.0,0.0,0.0,0.0,0.0,0.0,0.0
133,3391.0,8831.0,5.208493069890888,0.0015364286341861023,0.0014949260236354247,0.9340783796284899,-0.10591113773926139,0.0,3.0,-0.10591113773926139,10.306831389699319,8.831855132781275,0.0007671181221894547,293.0,274.0,5.624573378839591,0.1386861313868613,0.309255079006772,3185.0,8831.0,71.0,75.0,0.0,0.0,0.0,1.0,,0.0,0.008492809421356586,0.0,0.0,0.0,0.0,0.0,0.0,0.0,0.0,0.0,0.0
134,3391.0,8831.0,5.208493069890888,0.0015364286341861023,0.0014949260236354247,0.9340783796284899,-0.10591113773926139,0.0,3.0,-0.10591113773926139,10.306831389699319,8.831855132781275,0.0007671181221894547,293.0,274.0,5.624573378839591,0.1386861313868613,0.309255079006772,3185.0,8831.0,71.0,75.0,0.0,0.0,0.0,1.0,,0.0,0.008492809421356586,0.0,0.0,0.0,0.0,0.0,0.0,0.0,0.0,0.0,0.0
135,3391.0,8831.0,5.208493069890888,0.0015364286341861023,0.0014949260236354247,0.9340783796284899,-0.10591113773926139,0.0,3.0,-0.10591113773926139,10.306831389699319,8.831855132781275,0.0007671181221894547,293.0,274.0,5.624573378839591,0.1386861313868613,0.309255079006772,3185.0,8831.0,71.0,75.0,0.0,0.0,0.0,1.0,,0.0,0.008492809421356586,0.0,0.0,0.0,0.0,0.0,0.0,0.0,0.0,0.0,0.0
136,3391.0,8831.0,5.208493069890888,0.0015364286341861023,0.0014949260236354247,0.9340783796284899,-0.10591113773926139,0.0,3.0,-0.10591113773926139,10.306831389699319,8.831855132781275,0.0007671181221894547,293.0,274.0,5.624573378839591,0.1386861313868613,0.309255079006772,3185.0,8831.0,71.0,75.0,0.0,0.0,0.0,1.0,,0.0,0.008492809421356586,0.0,0.0,0.0,0.0,0.0,0.0,0.0,0.0,0.0,0.0
137,3391.0,8831.0,5.208493069890888,0.0015364286341861023,0.0014949260236354247,0.9340783796284899,-0.10591113773926139,0.0,3.0,-0.10591113773926139,10.306831389699319,8.831855132781275,0.0007671181221894547,293.0,274.0,5.624573378839591,0.1386861313868613,0.309255079006772,3185.0,8831.0,71.0,75.0,0.0,0.0,0.0,1.0,,0.0,0.008492809421356586,0.0,0.0,0.0,0.0,0.0,0.0,0.0,0.0,0.0,0.0
138,3406.0,8861.0,5.2031708749266,0.0015280971732530397,0.0014902737543675548,0.9351963248765798,-0.10587061067837725,0.0,3.0,-0.10587061067837725,10.313944702408541,8.838642653000573,0.0007629622554788292,293.0,274.0,5.6552901023890785,0.1386861313868613,0.309255079006772,3197.0,8861.0,72.0,76.0,0.0,0.0,0.0,1.0,0.0,0.0,0.008576910055298499,0.0,0.0,0.0,0.0,0.0,0.0,0.0,0.0,0.0,0.0
139,3406.0,8861.0,5.2031708749266,0.0015280971732530397,0.0014902737543675548,0.9351963248765798,-0.10587061067837725,0.0,3.0,-0.10587061067837725,10.313944702408541,8.838642653000573,0.0007629622554788292,293.0,274.0,5.6552901023890785,0.1386861313868613,0.309255079006772,3197.0,8861.0,72.0,76.0,0.0,0.0,0.0,1.0,,0.0,0.008576910055298499,0.0,0.0,0.0,0.0,0.0,0.0,0.0,0.0,0.0,0.0
140,3406.0,8861.0,5.2031708749266,0.0015280971732530397,0.0014902737543675548,0.9351963248765798,-0.10587061067837725,0.0,3.0,-0.10587061067837725,10.313944702408541,8.838642653000573,0.0007629622554788292,293.0,274.0,5.6552901023890785,0.1386861313868613,0.309255079006772,3197.0,8861.0,72.0,76.0,0.0,0.0,0.0,1.0,,0.0,0.008576910055298499,0.0,0.0,0.0,0.0,0.0,0.0,0.0,0.0,0.0,0.0
141,3408.0,8867.0,5.203638497652582,0.0015273373929124102,0.0014904342694118432,0.9357723051241092,-0.10592641981689524,0.0,3.0,-0.10592641981689524,10.315046994534192,8.839508577591321,0.0007625836198726002,293.0,274.0,5.662116040955631,0.1386861313868613,0.309255079006772,3201.0,8867.0,72.0,76.0,0.0,0.0,0.0,1.0,0.0,0.0,0.008571106349385361,0.0,0.0,0.0,0.0,0.0,0.0,0.0,0.0,0.0,0.0
142,3408.0,8867.0,5.203638497652582,0.0015273373929124102,0.0014904342694118432,0.9357723051241092,-0.10592641981689524,0.0,3.0,-0.10592641981689524,10.315046994534192,8.839508577591321,0.0007625836198726002,293.0,274.0,5.662116040955631,0.1386861313868613,0.309255079006772,3201.0,8867.0,72.0,76.0,0.0,0.0,0.0,1.0,,0.0,0.008571106349385361,0.0,0.0,0.0,0.0,0.0,0.0,0.0,0.0,0.0,0.0
143,3408.0,8867.0,5.203638497652582,0.0015273373929124102,0.0014904342694118432,0.9357723051241092,-0.10592641981689524,0.0,3.0,-0.10592641981689524,10.315046994534192,8.839508577591321,0.0007625836198726002,293.0,274.0,5.662116040955631,0.1386861313868613,0.309255079006772,3201.0,8867.0,72.0,76.0,0.0,0.0,0.0,1.0,,0.0,0.008571106349385361,0.0,0.0,0.0,0.0,0.0,0.0,0.0,0.0,0.0,0.0
144,3408.0,8867.0,5.203638497652582,0.0015273373929124102,0.0014904342694118432,0.9357723051241092,-0.10592641981689524,0.0,3.0,-0.10592641981689524,10.315046994534192,8.839508577591321,0.0007625836198726002,293.0,274.0,5.662116040955631,0.1386861313868613,0.309255079006772,3201.0,8867.0,72.0,76.0,0.0,0.0,0.0,1.0,,0.0,0.008571106349385361,0.0,0.0,0.0,0.0,0.0,0.0,0.0,0.0,0.0,0.0
145,3408.0,8867.0,5.203638497652582,0.0015273373929124102,0.0014904342694118432,0.9357723051241092,-0.10592641981689524,0.0,3.0,-0.10592641981689524,10.315046994534192,8.839508577591321,0.0007625836198726002,293.0,274.0,5.662116040955631,0.1386861313868613,0.309255079006772,3201.0,8867.0,72.0,76.0,0.0,0.0,0.0,1.0,,0.0,0.008571106349385361,0.0,0.0,0.0,0.0,0.0,0.0,0.0,0.0,0.0,0.0
146,3408.0,8867.0,5.203638497652582,0.0015273373929124102,0.0014904342694118432,0.9357723051241092,-0.10592641981689524,0.0,3.0,-0.10592641981689524,10.315046994534192,8.839508577591321,0.0007625836198726002,293.0,274.0,5.662116040955631,0.1386861313868613,0.309255079006772,3201.0,8867.0,72.0,76.0,0.0,0.0,0.0,1.0,,0.0,0.008571106349385361,0.0,0.0,0.0,0.0,0.0,0.0,0.0,0.0,0.0,0.0
147,3408.0,8867.0,5.203638497652582,0.0015273373929124102,0.0014904342694118432,0.9357723051241092,-0.10592641981689524,0.0,3.0,-0.10592641981689524,10.315046994534192,8.839508577591321,0.0007625836198726002,293.0,274.0,5.662116040955631,0.1386861313868613,0.309255079006772,3201.0,8867.0,72.0,76.0,0.0,0.0,0.0,1.0,,0.0,0.008571106349385361,0.0,0.0,0.0,0.0,0.0,0.0,0.0,0.0,0.0,0.0
148,3428.0,8902.0,5.193698949824971,0.0015155234752917918,0.0014835033888251452,0.9381029106673647,-0.10539110371703171,0.0,3.0,-0.10539110371703171,10.3237758776764,8.844837890858727,0.0007566897088838027,293.0,274.0,5.703071672354949,0.1386861313868613,0.309255079006772,3216.0,8902.0,74.0,78.0,0.0,0.0,0.0,1.0,0.0,0.0,0.008762075937991463,0.0,0.0,0.0,0.0,0.0,0.0,0.0,0.0,0.0,0.0
149,3428.0,8902.0,5.193698949824971,0.0015155234752917918,0.0014835033888251452,0.9381029106673647,-0.10539110371703171,0.0,3.0,-0.10539110371703171,10.3237758776764,8.844837890858727,0.0007566897088838027,293.0,274.0,5.703071672354949,0.1386861313868613,0.309255079006772,3216.0,8902.0,74.0,78.0,0.0,0.0,0.0,1.0,,0.0,0.008762075937991463,0.0,0.0,0.0,0.0,0.0,0.0,0.0,0.0,0.0,0.0
150,3428.0,8902.0,5.193698949824971,0.0015155234752917918,0.0014835033888251452,0.9381029106673647,-0.10539110371703171,0.0,3.0,-0.10539110371703171,10.3237758776764,8.844837890858727,0.0007566897088838027,293.0,274.0,5.703071672354949,0.1386861313868613,0.309255079006772,3216.0,8902.0,74.0,78.0,0.0,0.0,0.0,1.0,,0.0,0.008762075937991463,0.0,0.0,0.0,0.0,0.0,0.0,0.0,0.0,0.0,0.0
151,3428.0,8902.0,5.193698949824971,0.0015155234752917918,0.0014835033888251452,0.9381029106673647,-0.10539110371703171,0.0,3.0,-0.10539110371703171,10.3237758776764,8.844837890858727,0.0007566897088838027,293.0,274.0,5.703071672354949,0.1386861313868613,0.309255079006772,3216.0,8902.0,74.0,78.0,0.0,0.0,0.0,1.0,,0.0,0.008762075937991463,0.0,0.0,0.0,0.0,0.0,0.0,0.0,0.0,0.0,0.0
152,3428.0,8902.0,5.193698949824971,0.0015155234752917918,0.0014835033888251452,0.9381029106673647,-0.10539110371703171,0.0,3.0,-0.10539110371703171,10.3237758776764,8.844837890858727,0.0007566897088838027,293.0,274.0,5.703071672354949,0.1386861313868613,0.309255079006772,3216.0,8902.0,74.0,78.0,0.0,0.0,0.0,1.0,,0.0,0.008762075937991463,0.0,0.0,0.0,0.0,0.0,0.0,0.0,0.0,0.0,0.0
153,3428.0,8902.0,5.193698949824971,0.0015155234752917918,0.0014835033888251452,0.9381029106673647,-0.10539110371703171,0.0,3.0,-0.10539110371703171,10.3237758776764,8.844837890858727,0.0007566897088838027,293.0,274.0,5.703071672354949,0.1386861313868613,0.309255079006772,3216.0,8902.0,74.0,78.0,0.0,0.0,0.0,1.0,,0.0,0.008762075937991463,0.0,0.0,0.0,0.0,0.0,0.0,0.0,0.0,0.0,0.0
154,3428.0,8902.0,5.193698949824971,0.0015155234752917918,0.0014835033888251452,0.9381029106673647,-0.10539110371703171,0.0,3.0,-0.10539110371703171,10.3237758776764,8.844837890858727,0.0007566897088838027,293.0,274.0,5.703071672354949,0.1386861313868613,0.309255079006772,3216.0,8902.0,74.0,78.0,0.0,0.0,0.0,1.0,,0.0,0.008762075937991463,0.0,0.0,0.0,0.0,0.0,0.0,0.0,0.0,0.0,0.0
155,3428.0,8902.0,5.193698949824971,0.0015155234752917918,0.0014835033888251452,0.9381029106673647,-0.10539110371703171,0.0,3.0,-0.10539110371703171,10.3237758776764,8.844837890858727,0.0007566897088838027,293.0,274.0,5.703071672354949,0.1386861313868613,0.309255079006772,3216.0,8902.0,74.0,78.0,0.0,0.0,0.0,1.0,,0.0,0.008762075937991463,0.0,0.0,0.0,0.0,0.0,0.0,0.0,0.0,0.0,0.0
156,3428.0,8902.0,5.193698949824971,0.0015155234752917918,0.0014835033888251452,0.9381029106673647,-0.10539110371703171,0.0,3.0,-0.10539110371703171,10.3237758776764,8.844837890858727,0.0007566897088838027,293.0,274.0,5.703071672354949,0.1386861313868613,0.309255079006772,3216.0,8902.0,74.0,78.0,0.0,0.0,0.0,1.0,,0.0,0.008762075937991463,0.0,0.0,0.0,0.0,0.0,0.0,0.0,0.0,0.0,0.0
157,3428.0,8902.0,5.193698949824971,0.0015155234752917918,0.0014835033888251452,0.9381029106673647,-0.10539110371703171,0.0,3.0,-0.10539110371703171,10.3237758776764,8.844837890858727,0.0007566897088838027,293.0,274.0,5.703071672354949,0.1386861313868613,0.309255079006772,3216.0,8902.0,74.0,78.0,0.0,0.0,0.0,1.0,,0.0,0.008762075937991463,0.0,0.0,0.0,0.0,0.0,0.0,0.0,0.0,0.0,0.0
158,3428.0,8902.0,5.193698949824971,0.0015155234752917918,0.0014835033888251452,0.9381029106673647,-0.10539110371703171,0.0,3.0,-0.10539110371703171,10.3237758776764,8.844837890858727,0.0007566897088838027,293.0,274.0,5.703071672354949,0.1386861313868613,0.309255079006772,3216.0,8902.0,74.0,78.0,0.0,0.0,0.0,1.0,,0.0,0.008762075937991463,0.0,0.0,0.0,0.0,0.0,0.0,0.0,0.0,0.0,0.0
159,3428.0,8902.0,5.193698949824971,0.0015155234752917918,0.0014835033888251452,0.9381029106673647,-0.10539110371703171,0.0,3.0,-0.10539110371703171,10.3237758776764,8.844837890858727,0.0007566897088838027,293.0,274.0,5.703071672354949,0.1386861313868613,0.309255079006772,3216.0,8902.0,74.0,78.0,0.0,0.0,0.0,1.0,,0.0,0.008762075937991463,0.0,0.0,0.0,0.0,0.0,0.0,0.0,0.0,0.0,0.0
160,3428.0,8902.0,5.193698949824971,0.0015155234752917918,0.0014835033888251452,0.9381029106673647,-0.10539110371703171,0.0,3.0,-0.10539110371703171,10.3237758776764,8.844837890858727,0.0007566897088838027,293.0,274.0,5.703071672354949,0.1386861313868613,0.309255079006772,3216.0,8902.0,74.0,78.0,0.0,0.0,0.0,1.0,,0.0,0.008762075937991463,0.0,0.0,0.0,0.0,0.0,0.0,0.0,0.0,0.0,0.0
161,3428.0,8902.0,5.193698949824971,0.0015155234752917918,0.0014835033888251452,0.9381029106673647,-0.10539110371703171,0.0,3.0,-0.10539110371703171,10.3237758776764,8.844837890858727,0.0007566897088838027,293.0,274.0,5.703071672354949,0.1386861313868613,0.309255079006772,3216.0,8902.0,74.0,78.0,0.0,0.0,0.0,1.0,,0.0,0.008762075937991463,0.0,0.0,0.0,0.0,0.0,0.0,0.0,0.0,0.0,0.0
162,3428.0,8902.0,5.193698949824971,0.0015155234752917918,0.0014835033888251452,0.9381029106673647,-0.10539110371703171,0.0,3.0,-0.10539110371703171,10.3237758776764,8.844837890858727,0.0007566897088838027,293.0,274.0,5.703071672354949,0.1386861313868613,0.309255079006772,3216.0,8902.0,74.0,78.0,0.0,0.0,0.0,1.0,,0.0,0.008762075937991463,0.0,0.0,0.0,0.0,0.0,0.0,0.0,0.0,0.0,0.0
163,3428.0,8902.0,5.193698949824971,0.0015155234752917918,0.0014835033888251452,0.9381029106673647,-0.10539110371703171,0.0,3.0,-0.10539110371703171,10.3237758776764,8.844837890858727,0.0007566897088838027,293.0,274.0,5.703071672354949,0.1386861313868613,0.309255079006772,3216.0,8902.0,74.0,78.0,0.0,0.0,0.0,1.0,,0.0,0.008762075937991463,0.0,0.0,0.0,0.0,0.0,0.0,0.0,0.0,0.0,0.0
164,3428.0,8902.0,5.193698949824971,0.0015155234752917918,0.0014835033888251452,0.9381029106673647,-0.10539110371703171,0.0,3.0,-0.10539110371703171,10.3237758776764,8.844837890858727,0.0007566897088838027,293.0,274.0,5.703071672354949,0.1386861313868613,0.309255079006772,3216.0,8902.0,74.0,78.0,0.0,0.0,0.0,1.0,,0.0,0.008762075937991463,0.0,0.0,0.0,0.0,0.0,0.0,0.0,0.0,0.0,0.0
165,3428.0,8902.0,5.193698949824971,0.0015155234752917918,0.0014835033888251452,0.9381029106673647,-0.10539110371703171,0.0,3.0,-0.10539110371703171,10.3237758776764,8.844837890858727,0.0007566897088838027,293.0,274.0,5.703071672354949,0.1386861313868613,0.309255079006772,3216.0,8902.0,74.0,78.0,0.0,0.0,0.0,1.0,,0.0,0.008762075937991463,0.0,0.0,0.0,0.0,0.0,0.0,0.0,0.0,0.0,0.0
166,3428.0,8902.0,5.193698949824971,0.0015155234752917918,0.0014835033888251452,0.9381029106673647,-0.10539110371703171,0.0,3.0,-0.10539110371703171,10.3237758776764,8.844837890858727,0.0007566897088838027,293.0,274.0,5.703071672354949,0.1386861313868613,0.309255079006772,3216.0,8902.0,74.0,78.0,0.0,0.0,0.0,1.0,,0.0,0.008762075937991463,0.0,0.0,0.0,0.0,0.0,0.0,0.0,0.0,0.0,0.0
167,3428.0,8902.0,5.193698949824971,0.0015155234752917918,0.0014835033888251452,0.9381029106673647,-0.10539110371703171,0.0,3.0,-0.10539110371703171,10.3237758776764,8.844837890858727,0.0007566897088838027,293.0,274.0,5.703071672354949,0.1386861313868613,0.309255079006772,3216.0,8902.0,74.0,78.0,0.0,0.0,0.0,1.0,,0.0,0.008762075937991463,0.0,0.0,0.0,0.0,0.0,0.0,0.0,0.0,0.0,0.0
168,3443.0,8932.0,5.18849840255591,0.0015074080193364064,0.0014789355257998017,0.9391912552113534,-0.10534012360107314,0.0,3.0,-0.10534012360107314,10.330560875522131,8.850837791474746,0.0007526415211963238,293.0,274.0,5.733788395904437,0.1386861313868613,0.309255079006772,3228.0,8932.0,75.0,79.0,0.0,0.0,0.0,1.0,0.0,0.0,0.00884460367218988,0.0,0.0,0.0,0.0,0.0,0.0,0.0,0.0,0.0,0.0
169,3443.0,8932.0,5.18849840255591,0.0015074080193364064,0.0014789355257998017,0.9391912552113534,-0.10534012360107314,0.0,3.0,-0.10534012360107314,10.330560875522131,8.850837791474746,0.0007526415211963238,293.0,274.0,5.733788395904437,0.1386861313868613,0.309255079006772,3228.0,8932.0,75.0,79.0,0.0,0.0,0.0,1.0,,0.0,0.00884460367218988,0.0,0.0,0.0,0.0,0.0,0.0,0.0,0.0,0.0,0.0
170,3443.0,8932.0,5.18849840255591,0.0015074080193364064,0.0014789355257998017,0.9391912552113534,-0.10534012360107314,0.0,3.0,-0.10534012360107314,10.330560875522131,8.850837791474746,0.0007526415211963238,293.0,274.0,5.733788395904437,0.1386861313868613,0.309255079006772,3228.0,8932.0,75.0,79.0,0.0,0.0,0.0,1.0,,0.0,0.00884460367218988,0.0,0.0,0.0,0.0,0.0,0.0,0.0,0.0,0.0,0.0
171,3443.0,8932.0,5.18849840255591,0.0015074080193364064,0.0014789355257998017,0.9391912552113534,-0.10534012360107314,0.0,3.0,-0.10534012360107314,10.330560875522131,8.850837791474746,0.0007526415211963238,293.0,274.0,5.733788395904437,0.1386861313868613,0.309255079006772,3228.0,8932.0,75.0,79.0,0.0,0.0,0.0,1.0,,0.0,0.00884460367218988,0.0,0.0,0.0,0.0,0.0,0.0,0.0,0.0,0.0,0.0
172,3443.0,8932.0,5.18849840255591,0.0015074080193364064,0.0014789355257998017,0.9391912552113534,-0.10534012360107314,0.0,3.0,-0.10534012360107314,10.330560875522131,8.850837791474746,0.0007526415211963238,293.0,274.0,5.733788395904437,0.1386861313868613,0.309255079006772,3228.0,8932.0,75.0,79.0,0.0,0.0,0.0,1.0,,0.0,0.00884460367218988,0.0,0.0,0.0,0.0,0.0,0.0,0.0,0.0,0.0,0.0
173,3443.0,8932.0,5.18849840255591,0.0015074080193364064,0.0014789355257998017,0.9391912552113534,-0.10534012360107314,0.0,3.0,-0.10534012360107314,10.330560875522131,8.850837791474746,0.0007526415211963238,293.0,274.0,5.733788395904437,0.1386861313868613,0.309255079006772,3228.0,8932.0,75.0,79.0,0.0,0.0,0.0,1.0,,0.0,0.00884460367218988,0.0,0.0,0.0,0.0,0.0,0.0,0.0,0.0,0.0,0.0
174,3443.0,8932.0,5.18849840255591,0.0015074080193364064,0.0014789355257998017,0.9391912552113534,-0.10534012360107314,0.0,3.0,-0.10534012360107314,10.330560875522131,8.850837791474746,0.0007526415211963238,293.0,274.0,5.733788395904437,0.1386861313868613,0.309255079006772,3228.0,8932.0,75.0,79.0,0.0,0.0,0.0,1.0,,0.0,0.00884460367218988,0.0,0.0,0.0,0.0,0.0,0.0,0.0,0.0,0.0,0.0
175,3443.0,8932.0,5.18849840255591,0.0015074080193364064,0.0014789355257998017,0.9391912552113534,-0.10534012360107314,0.0,3.0,-0.10534012360107314,10.330560875522131,8.850837791474746,0.0007526415211963238,293.0,274.0,5.733788395904437,0.1386861313868613,0.309255079006772,3228.0,8932.0,75.0,79.0,0.0,0.0,0.0,1.0,,0.0,0.00884460367218988,0.0,0.0,0.0,0.0,0.0,0.0,0.0,0.0,0.0,0.0
176,3443.0,8932.0,5.18849840255591,0.0015074080193364064,0.0014789355257998017,0.9391912552113534,-0.10534012360107314,0.0,3.0,-0.10534012360107314,10.330560875522131,8.850837791474746,0.0007526415211963238,293.0,274.0,5.733788395904437,0.1386861313868613,0.309255079006772,3228.0,8932.0,75.0,79.0,0.0,0.0,0.0,1.0,,0.0,0.00884460367218988,0.0,0.0,0.0,0.0,0.0,0.0,0.0,0.0,0.0,0.0
177,3480.0,8999.0,5.17183908045977,0.0014865878357170938,0.00146534387996448,0.942369941509941,-0.1065712328976686,0.0,3.0,-0.1065712328976686,10.344791390374603,8.855936379668528,0.000742254591095257,293.0,274.0,5.819112627986348,0.1386861313868613,0.309255079006772,3256.0,8999.0,81.0,85.0,0.0,0.0,0.0,1.0,0.0,0.0,0.00944549394377153,0.0,0.0,0.0,0.0,0.0,0.0,0.0,0.0,0.0,0.0
178,3480.0,8999.0,5.17183908045977,0.0014865878357170938,0.00146534387996448,0.942369941509941,-0.1065712328976686,0.0,3.0,-0.1065712328976686,10.344791390374603,8.855936379668528,0.000742254591095257,293.0,274.0,5.819112627986348,0.1386861313868613,0.309255079006772,3256.0,8999.0,81.0,85.0,0.0,0.0,0.0,1.0,,0.0,0.00944549394377153,0.0,0.0,0.0,0.0,0.0,0.0,0.0,0.0,0.0,0.0
179,3480.0,8999.0,5.17183908045977,0.0014865878357170938,0.00146534387996448,0.942369941509941,-0.1065712328976686,0.0,3.0,-0.1065712328976686,10.344791390374603,8.855936379668528,0.000742254591095257,293.0,274.0,5.819112627986348,0.1386861313868613,0.309255079006772,3256.0,8999.0,81.0,85.0,0.0,0.0,0.0,1.0,,0.0,0.00944549394377153,0.0,0.0,0.0,0.0,0.0,0.0,0.0,0.0,0.0,0.0
180,3480.0,8999.0,5.17183908045977,0.0014865878357170938,0.00146534387996448,0.942369941509941,-0.1065712328976686,0.0,3.0,-0.1065712328976686,10.344791390374603,8.855936379668528,0.000742254591095257,293.0,274.0,5.819112627986348,0.1386861313868613,0.309255079006772,3256.0,8999.0,81.0,85.0,0.0,0.0,0.0,1.0,,0.0,0.00944549394377153,0.0,0.0,0.0,0.0,0.0,0.0,0.0,0.0,0.0,0.0
181,3480.0,8999.0,5.17183908045977,0.0014865878357170938,0.00146534387996448,0.942369941509941,-0.1065712328976686,0.0,3.0,-0.1065712328976686,10.344791390374603,8.855936379668528,0.000742254591095257,293.0,274.0,5.819112627986348,0.1386861313868613,0.309255079006772,3256.0,8999.0,81.0,85.0,0.0,0.0,0.0,1.0,,0.0,0.00944549394377153,0.0,0.0,0.0,0.0,0.0,0.0,0.0,0.0,0.0,0.0
182,3480.0,8999.0,5.17183908045977,0.0014865878357170938,0.00146534387996448,0.942369941509941,-0.1065712328976686,0.0,3.0,-0.1065712328976686,10.344791390374603,8.855936379668528,0.000742254591095257,293.0,274.0,5.819112627986348,0.1386861313868613,0.309255079006772,3256.0,8999.0,81.0,85.0,0.0,0.0,0.0,1.0,,0.0,0.00944549394377153,0.0,0.0,0.0,0.0,0.0,0.0,0.0,0.0,0.0,0.0
183,3480.0,8999.0,5.17183908045977,0.0014865878357170938,0.00146534387996448,0.942369941509941,-0.1065712328976686,0.0,3.0,-0.1065712328976686,10.344791390374603,8.855936379668528,0.000742254591095257,293.0,274.0,5.819112627986348,0.1386861313868613,0.309255079006772,3256.0,8999.0,81.0,85.0,0.0,0.0,0.0,1.0,,0.0,0.00944549394377153,0.0,0.0,0.0,0.0,0.0,0.0,0.0,0.0,0.0,0.0
184,3480.0,8999.0,5.17183908045977,0.0014865878357170938,0.00146534387996448,0.942369941509941,-0.1065712328976686,0.0,3.0,-0.1065712328976686,10.344791390374603,8.855936379668528,0.000742254591095257,293.0,274.0,5.819112627986348,0.1386861313868613,0.309255079006772,3256.0,8999.0,81.0,85.0,0.0,0.0,0.0,1.0,,0.0,0.00944549394377153,0.0,0.0,0.0,0.0,0.0,0.0,0.0,0.0,0.0,0.0
185,3480.0,8999.0,5.17183908045977,0.0014865878357170938,0.00146534387996448,0.942369941509941,-0.1065712328976686,0.0,3.0,-0.1065712328976686,10.344791390374603,8.855936379668528,0.000742254591095257,293.0,274.0,5.819112627986348,0.1386861313868613,0.309255079006772,3256.0,8999.0,81.0,85.0,0.0,0.0,0.0,1.0,,0.0,0.00944549394377153,0.0,0.0,0.0,0.0,0.0,0.0,0.0,0.0,0.0,0.0
186,3480.0,8999.0,5.17183908045977,0.0014865878357170938,0.00146534387996448,0.942369941509941,-0.1065712328976686,0.0,3.0,-0.1065712328976686,10.344791390374603,8.855936379668528,0.000742254591095257,293.0,274.0,5.819112627986348,0.1386861313868613,0.309255079006772,3256.0,8999.0,81.0,85.0,0.0,0.0,0.0,1.0,,0.0,0.00944549394377153,0.0,0.0,0.0,0.0,0.0,0.0,0.0,0.0,0.0,0.0
187,3480.0,8999.0,5.17183908045977,0.0014865878357170938,0.00146534387996448,0.942369941509941,-0.1065712328976686,0.0,3.0,-0.1065712328976686,10.344791390374603,8.855936379668528,0.000742254591095257,293.0,274.0,5.819112627986348,0.1386861313868613,0.309255079006772,3256.0,8999.0,81.0,85.0,0.0,0.0,0.0,1.0,,0.0,0.00944549394377153,0.0,0.0,0.0,0.0,0.0,0.0,0.0,0.0,0.0,0.0
188,3499.0,9037.0,5.1654758502429265,0.0014766940681083267,0.0014597763323922445,0.9439009346183517,-0.10700431586138404,0.0,3.0,-0.10700431586138404,10.35285376312616,8.862052239231758,0.0007373192242653579,293.0,274.0,5.860068259385666,0.1386861313868613,0.309255079006772,3271.0,9037.0,83.0,87.0,0.0,0.0,0.0,1.0,0.0,0.0,0.009627088635609163,0.0,0.0,0.0,0.0,0.0,0.0,0.0,0.0,0.0,0.0
189,3499.0,9037.0,5.1654758502429265,0.0014766940681083267,0.0014597763323922445,0.9439009346183517,-0.10700431586138404,0.0,3.0,-0.10700431586138404,10.35285376312616,8.862052239231758,0.0007373192242653579,293.0,274.0,5.860068259385666,0.1386861313868613,0.309255079006772,3271.0,9037.0,83.0,87.0,0.0,0.0,0.0,1.0,,0.0,0.009627088635609163,0.0,0.0,0.0,0.0,0.0,0.0,0.0,0.0,0.0,0.0
190,3499.0,9037.0,5.1654758502429265,0.0014766940681083267,0.0014597763323922445,0.9439009346183517,-0.10700431586138404,0.0,3.0,-0.10700431586138404,10.35285376312616,8.862052239231758,0.0007373192242653579,293.0,274.0,5.860068259385666,0.1386861313868613,0.309255079006772,3271.0,9037.0,83.0,87.0,0.0,0.0,0.0,1.0,,0.0,0.009627088635609163,0.0,0.0,0.0,0.0,0.0,0.0,0.0,0.0,0.0,0.0
191,3499.0,9037.0,5.1654758502429265,0.0014766940681083267,0.0014597763323922445,0.9439009346183517,-0.10700431586138404,0.0,3.0,-0.10700431586138404,10.35285376312616,8.862052239231758,0.0007373192242653579,293.0,274.0,5.860068259385666,0.1386861313868613,0.309255079006772,3271.0,9037.0,83.0,87.0,0.0,0.0,0.0,1.0,,0.0,0.009627088635609163,0.0,0.0,0.0,0.0,0.0,0.0,0.0,0.0,0.0,0.0
192,3499.0,9037.0,5.1654758502429265,0.0014766940681083267,0.0014597763323922445,0.9439009346183517,-0.10700431586138404,0.0,3.0,-0.10700431586138404,10.35285376312616,8.862052239231758,0.0007373192242653579,293.0,274.0,5.860068259385666,0.1386861313868613,0.309255079006772,3271.0,9037.0,83.0,87.0,0.0,0.0,0.0,1.0,,0.0,0.009627088635609163,0.0,0.0,0.0,0.0,0.0,0.0,0.0,0.0,0.0,0.0
193,3499.0,9037.0,5.1654758502429265,0.0014766940681083267,0.0014597763323922445,0.9439009346183517,-0.10700431586138404,0.0,3.0,-0.10700431586138404,10.35285376312616,8.862052239231758,0.0007373192242653579,293.0,274.0,5.860068259385666,0.1386861313868613,0.309255079006772,3271.0,9037.0,83.0,87.0,0.0,0.0,0.0,1.0,,0.0,0.009627088635609163,0.0,0.0,0.0,0.0,0.0,0.0,0.0,0.0,0.0,0.0
194,3499.0,9037.0,5.1654758502429265,0.0014766940681083267,0.0014597763323922445,0.9439009346183517,-0.10700431586138404,0.0,3.0,-0.10700431586138404,10.35285376312616,8.862052239231758,0.0007373192242653579,293.0,274.0,5.860068259385666,0.1386861313868613,0.309255079006772,3271.0,9037.0,83.0,87.0,0.0,0.0,0.0,1.0,,0.0,0.009627088635609163,0.0,0.0,0.0,0.0,0.0,0.0,0.0,0.0,0.0,0.0
195,3499.0,9037.0,5.1654758502429265,0.0014766940681083267,0.0014597763323922445,0.9439009346183517,-0.10700431586138404,0.0,3.0,-0.10700431586138404,10.35285376312616,8.862052239231758,0.0007373192242653579,293.0,274.0,5.860068259385666,0.1386861313868613,0.309255079006772,3271.0,9037.0,83.0,87.0,0.0,0.0,0.0,1.0,,0.0,0.009627088635609163,0.0,0.0,0.0,0.0,0.0,0.0,0.0,0.0,0.0,0.0
196,3527.0,9085.0,5.1516869861071735,0.0014610570011648254,0.0014499814838008207,0.9473121975022291,-0.10646551717349932,0.0,3.0,-0.10646551717349932,10.363472941154736,8.867219420474878,0.0007295174999391063,293.0,274.0,5.918088737201365,0.1386861313868613,0.309255079006772,3291.0,9085.0,86.0,91.0,0.0,0.0,0.0,1.0,0.0,0.0,0.010016510731975785,0.0,0.0,0.0,0.0,0.0,0.0,0.0,0.0,0.0,0.0
197,3527.0,9085.0,5.1516869861071735,0.0014610570011648254,0.0014499814838008207,0.9473121975022291,-0.10646551717349932,0.0,3.0,-0.10646551717349932,10.363472941154736,8.867219420474878,0.0007295174999391063,293.0,274.0,5.918088737201365,0.1386861313868613,0.309255079006772,3291.0,9085.0,86.0,91.0,0.0,0.0,0.0,1.0,,0.0,0.010016510731975785,0.0,0.0,0.0,0.0,0.0,0.0,0.0,0.0,0.0,0.0
198,3540.0,9107.0,5.1451977401129945,0.0014538563831910127,0.0014460967935855606,0.9508484333117785,-0.10600179789450438,0.0,3.0,-0.10600179789450438,10.368100195265857,8.866315989037606,0.0007259248619489929,293.0,274.0,5.952218430034129,0.1386861313868613,0.309255079006772,3303.0,9107.0,88.0,94.0,0.0,0.0,0.0,1.0,0.0,0.0,0.010321730536949599,0.0,0.0,0.0,0.0,0.0,0.0,0.0,0.0,0.0,0.0
199,3540.0,9107.0,5.1451977401129945,0.0014538563831910127,0.0014460967935855606,0.9508484333117785,-0.10600179789450438,0.0,3.0,-0.10600179789450438,10.368100195265857,8.866315989037606,0.0007259248619489929,293.0,274.0,5.952218430034129,0.1386861313868613,0.309255079006772,3303.0,9107.0,88.0,94.0,0.0,0.0,0.0,1.0,,0.0,0.010321730536949599,0.0,0.0,0.0,0.0,0.0,0.0,0.0,0.0,0.0,0.0
200,3540.0,9107.0,5.1451977401129945,0.0014538563831910127,0.0014460967935855606,0.9508484333117785,-0.10600179789450438,0.0,3.0,-0.10600179789450438,10.368100195265857,8.866315989037606,0.0007259248619489929,293.0,274.0,5.952218430034129,0.1386861313868613,0.309255079006772,3303.0,9107.0,88.0,94.0,0.0,0.0,0.0,1.0,,0.0,0.010321730536949599,0.0,0.0,0.0,0.0,0.0,0.0,0.0,0.0,0.0,0.0
201,3540.0,9107.0,5.1451977401129945,0.0014538563831910127,0.0014460967935855606,0.9508484333117785,-0.10600179789450438,0.0,3.0,-0.10600179789450438,10.368100195265857,8.866315989037606,0.0007259248619489929,293.0,274.0,5.952218430034129,0.1386861313868613,0.309255079006772,3303.0,9107.0,88.0,94.0,0.0,0.0,0.0,1.0,,0.0,0.010321730536949599,0.0,0.0,0.0,0.0,0.0,0.0,0.0,0.0,0.0,0.0
202,3540.0,9107.0,5.1451977401129945,0.0014538563831910127,0.0014460967935855606,0.9508484333117785,-0.10600179789450438,0.0,3.0,-0.10600179789450438,10.368100195265857,8.866315989037606,0.0007259248619489929,293.0,274.0,5.952218430034129,0.1386861313868613,0.309255079006772,3303.0,9107.0,88.0,94.0,0.0,0.0,0.0,1.0,,0.0,0.010321730536949599,0.0,0.0,0.0,0.0,0.0,0.0,0.0,0.0,0.0,0.0
203,3561.0,9145.0,5.136197697276046,0.0014427521621561928,0.0014386899164692054,0.9514549124125765,-0.10654442010805501,0.0,3.0,-0.10654442010805501,10.376331132917194,8.87114730527031,0.0007203849055586035,293.0,274.0,5.993174061433447,0.1386861313868613,0.309255079006772,3318.0,9145.0,90.0,96.0,0.0,0.0,0.0,1.0,0.0,0.0,0.010497539639147076,0.0,0.0,0.0,0.0,0.0,0.0,0.0,0.0,0.0,0.0
204,3561.0,9145.0,5.136197697276046,0.0014427521621561928,0.0014386899164692054,0.9514549124125765,-0.10654442010805501,0.0,3.0,-0.10654442010805501,10.376331132917194,8.87114730527031,0.0007203849055586035,293.0,274.0,5.993174061433447,0.1386861313868613,0.309255079006772,3318.0,9145.0,90.0,96.0,0.0,0.0,0.0,1.0,,0.0,0.010497539639147076,0.0,0.0,0.0,0.0,0.0,0.0,0.0,0.0,0.0,0.0
205,3567.0,9158.0,5.1348472105410705,0.0014399459367753981,0.0014374555692585208,0.9529231776975655,-0.10647661343074792,0.0,3.0,-0.10647661343074792,10.378478244287114,8.87148141685489,0.0007189851777291591,293.0,274.0,6.010238907849829,0.1386861313868613,0.309255079006772,3325.0,9158.0,91.0,97.0,0.0,0.0,0.0,1.0,0.0,0.0,0.01059183227778991,0.0,0.0,0.0,0.0,0.0,0.0,0.0,0.0,0.0,0.0
206,3567.0,9158.0,5.1348472105410705,0.0014399459367753981,0.0014374555692585208,0.9529231776975655,-0.10647661343074792,0.0,3.0,-0.10647661343074792,10.378478244287114,8.87148141685489,0.0007189851777291591,293.0,274.0,6.010238907849829,0.1386861313868613,0.309255079006772,3325.0,9158.0,91.0,97.0,0.0,0.0,0.0,1.0,,0.0,0.01059183227778991,0.0,0.0,0.0,0.0,0.0,0.0,0.0,0.0,0.0,0.0
207,3567.0,9158.0,5.1348472105410705,0.0014399459367753981,0.0014374555692585208,0.9529231776975655,-0.10647661343074792,0.0,3.0,-0.10647661343074792,10.378478244287114,8.87148141685489,0.0007189851777291591,293.0,274.0,6.010238907849829,0.1386861313868613,0.309255079006772,3325.0,9158.0,91.0,97.0,0.0,0.0,0.0,1.0,,0.0,0.01059183227778991,0.0,0.0,0.0,0.0,0.0,0.0,0.0,0.0,0.0,0.0
208,3567.0,9158.0,5.1348472105410705,0.0014399459367753981,0.0014374555692585208,0.9529231776975655,-0.10647661343074792,0.0,3.0,-0.10647661343074792,10.378478244287114,8.87148141685489,0.0007189851777291591,293.0,274.0,6.010238907849829,0.1386861313868613,0.309255079006772,3325.0,9158.0,91.0,97.0,0.0,0.0,0.0,1.0,,0.0,0.01059183227778991,0.0,0.0,0.0,0.0,0.0,0.0,0.0,0.0,0.0,0.0
209,3567.0,9158.0,5.1348472105410705,0.0014399459367753981,0.0014374555692585208,0.9529231776975655,-0.10647661343074792,0.0,3.0,-0.10647661343074792,10.378478244287114,8.87148141685489,0.0007189851777291591,293.0,274.0,6.010238907849829,0.1386861313868613,0.309255079006772,3325.0,9158.0,91.0,97.0,0.0,0.0,0.0,1.0,,0.0,0.01059183227778991,0.0,0.0,0.0,0.0,0.0,0.0,0.0,0.0,0.0,0.0
210,3567.0,9158.0,5.1348472105410705,0.0014399459367753981,0.0014374555692585208,0.9529231776975655,-0.10647661343074792,0.0,3.0,-0.10647661343074792,10.378478244287114,8.87148141685489,0.0007189851777291591,293.0,274.0,6.010238907849829,0.1386861313868613,0.309255079006772,3325.0,9158.0,91.0,97.0,0.0,0.0,0.0,1.0,,0.0,0.01059183227778991,0.0,0.0,0.0,0.0,0.0,0.0,0.0,0.0,0.0,0.0
211,3567.0,9158.0,5.1348472105410705,0.0014399459367753981,0.0014374555692585208,0.9529231776975655,-0.10647661343074792,0.0,3.0,-0.10647661343074792,10.378478244287114,8.87148141685489,0.0007189851777291591,293.0,274.0,6.010238907849829,0.1386861313868613,0.309255079006772,3325.0,9158.0,91.0,97.0,0.0,0.0,0.0,1.0,,0.0,0.01059183227778991,0.0,0.0,0.0,0.0,0.0,0.0,0.0,0.0,0.0,0.0
212,3567.0,9158.0,5.1348472105410705,0.0014399459367753981,0.0014374555692585208,0.9529231776975655,-0.10647661343074792,0.0,3.0,-0.10647661343074792,10.378478244287114,8.87148141685489,0.0007189851777291591,293.0,274.0,6.010238907849829,0.1386861313868613,0.309255079006772,3325.0,9158.0,91.0,97.0,0.0,0.0,0.0,1.0,,0.0,0.01059183227778991,0.0,0.0,0.0,0.0,0.0,0.0,0.0,0.0,0.0,0.0
213,3567.0,9158.0,5.1348472105410705,0.0014399459367753981,0.0014374555692585208,0.9529231776975655,-0.10647661343074792,0.0,3.0,-0.10647661343074792,10.378478244287114,8.87148141685489,0.0007189851777291591,293.0,274.0,6.010238907849829,0.1386861313868613,0.309255079006772,3325.0,9158.0,91.0,97.0,0.0,0.0,0.0,1.0,,0.0,0.01059183227778991,0.0,0.0,0.0,0.0,0.0,0.0,0.0,0.0,0.0,0.0
214,3567.0,9158.0,5.1348472105410705,0.0014399459367753981,0.0014374555692585208,0.9529231776975655,-0.10647661343074792,0.0,3.0,-0.10647661343074792,10.378478244287114,8.87148141685489,0.0007189851777291591,293.0,274.0,6.010238907849829,0.1386861313868613,0.309255079006772,3325.0,9158.0,91.0,97.0,0.0,0.0,0.0,1.0,,0.0,0.01059183227778991,0.0,0.0,0.0,0.0,0.0,0.0,0.0,0.0,0.0,0.0
215,3576.0,9176.0,5.131991051454139,0.0014355219724347243,0.0014353163120492578,0.9543273472860279,-0.10642615439068218,0.0,3.0,-0.10642615439068218,10.382070090305975,8.872404399403418,0.0007167782732509547,293.0,274.0,6.037542662116041,0.1386861313868613,0.309255079006772,3335.0,9176.0,92.0,98.0,0.0,0.0,0.0,1.0,0.0,0.0,0.010680034873583261,0.0,0.0,0.0,0.0,0.0,0.0,0.0,0.0,0.0,0.0
216,3576.0,9176.0,5.131991051454139,0.0014355219724347243,0.0014353163120492578,0.9543273472860279,-0.10642615439068218,0.0,3.0,-0.10642615439068218,10.382070090305975,8.872404399403418,0.0007167782732509547,293.0,274.0,6.037542662116041,0.1386861313868613,0.309255079006772,3335.0,9176.0,92.0,98.0,0.0,0.0,0.0,1.0,,0.0,0.010680034873583261,0.0,0.0,0.0,0.0,0.0,0.0,0.0,0.0,0.0,0.0
217,3595.0,9210.0,5.123783031988873,0.0014256491463519403,0.0014288453230843743,0.9564771626580365,-0.10698044698879898,0.0,3.0,-0.10698044698879898,10.388706780612779,8.871540265120409,0.0007118525381992066,293.0,274.0,6.085324232081911,0.1386861313868613,0.309255079006772,3351.0,9210.0,96.0,102.0,0.0,0.0,0.0,1.0,0.0,0.0,0.011074918566775244,0.0,0.0,0.0,0.0,0.0,0.0,0.0,0.0,0.0,0.0
218,3595.0,9210.0,5.123783031988873,0.0014256491463519403,0.0014288453230843743,0.9564771626580365,-0.10698044698879898,0.0,3.0,-0.10698044698879898,10.388706780612779,8.871540265120409,0.0007118525381992066,293.0,274.0,6.085324232081911,0.1386861313868613,0.309255079006772,3351.0,9210.0,96.0,102.0,0.0,0.0,0.0,1.0,,0.0,0.011074918566775244,0.0,0.0,0.0,0.0,0.0,0.0,0.0,0.0,0.0,0.0
219,3595.0,9210.0,5.123783031988873,0.0014256491463519403,0.0014288453230843743,0.9564771626580365,-0.10698044698879898,0.0,3.0,-0.10698044698879898,10.388706780612779,8.871540265120409,0.0007118525381992066,293.0,274.0,6.085324232081911,0.1386861313868613,0.309255079006772,3351.0,9210.0,96.0,102.0,0.0,0.0,0.0,1.0,,0.0,0.011074918566775244,0.0,0.0,0.0,0.0,0.0,0.0,0.0,0.0,0.0,0.0
220,3595.0,9210.0,5.123783031988873,0.0014256491463519403,0.0014288453230843743,0.9564771626580365,-0.10698044698879898,0.0,3.0,-0.10698044698879898,10.388706780612779,8.871540265120409,0.0007118525381992066,293.0,274.0,6.085324232081911,0.1386861313868613,0.309255079006772,3351.0,9210.0,96.0,102.0,0.0,0.0,0.0,1.0,,0.0,0.011074918566775244,0.0,0.0,0.0,0.0,0.0,0.0,0.0,0.0,0.0,0.0
221,3595.0,9210.0,5.123783031988873,0.0014256491463519403,0.0014288453230843743,0.9564771626580365,-0.10698044698879898,0.0,3.0,-0.10698044698879898,10.388706780612779,8.871540265120409,0.0007118525381992066,293.0,274.0,6.085324232081911,0.1386861313868613,0.309255079006772,3351.0,9210.0,96.0,102.0,0.0,0.0,0.0,1.0,,0.0,0.011074918566775244,0.0,0.0,0.0,0.0,0.0,0.0,0.0,0.0,0.0,0.0
222,3595.0,9210.0,5.123783031988873,0.0014256491463519403,0.0014288453230843743,0.9564771626580365,-0.10698044698879898,0.0,3.0,-0.10698044698879898,10.388706780612779,8.871540265120409,0.0007118525381992066,293.0,274.0,6.085324232081911,0.1386861313868613,0.309255079006772,3351.0,9210.0,96.0,102.0,0.0,0.0,0.0,1.0,,0.0,0.011074918566775244,0.0,0.0,0.0,0.0,0.0,0.0,0.0,0.0,0.0,0.0
223,3595.0,9210.0,5.123783031988873,0.0014256491463519403,0.0014288453230843743,0.9564771626580365,-0.10698044698879898,0.0,3.0,-0.10698044698879898,10.388706780612779,8.871540265120409,0.0007118525381992066,293.0,274.0,6.085324232081911,0.1386861313868613,0.309255079006772,3351.0,9210.0,96.0,102.0,0.0,0.0,0.0,1.0,,0.0,0.011074918566775244,0.0,0.0,0.0,0.0,0.0,0.0,0.0,0.0,0.0,0.0
224,3595.0,9210.0,5.123783031988873,0.0014256491463519403,0.0014288453230843743,0.9564771626580365,-0.10698044698879898,0.0,3.0,-0.10698044698879898,10.388706780612779,8.871540265120409,0.0007118525381992066,293.0,274.0,6.085324232081911,0.1386861313868613,0.309255079006772,3351.0,9210.0,96.0,102.0,0.0,0.0,0.0,1.0,,0.0,0.011074918566775244,0.0,0.0,0.0,0.0,0.0,0.0,0.0,0.0,0.0,0.0
225,3595.0,9210.0,5.123783031988873,0.0014256491463519403,0.0014288453230843743,0.9564771626580365,-0.10698044698879898,0.0,3.0,-0.10698044698879898,10.388706780612779,8.871540265120409,0.0007118525381992066,293.0,274.0,6.085324232081911,0.1386861313868613,0.309255079006772,3351.0,9210.0,96.0,102.0,0.0,0.0,0.0,1.0,,0.0,0.011074918566775244,0.0,0.0,0.0,0.0,0.0,0.0,0.0,0.0,0.0,0.0
226,3595.0,9210.0,5.123783031988873,0.0014256491463519403,0.0014288453230843743,0.9564771626580365,-0.10698044698879898,0.0,3.0,-0.10698044698879898,10.388706780612779,8.871540265120409,0.0007118525381992066,293.0,274.0,6.085324232081911,0.1386861313868613,0.309255079006772,3351.0,9210.0,96.0,102.0,0.0,0.0,0.0,1.0,,0.0,0.011074918566775244,0.0,0.0,0.0,0.0,0.0,0.0,0.0,0.0,0.0,0.0
227,3595.0,9210.0,5.123783031988873,0.0014256491463519403,0.0014288453230843743,0.9564771626580365,-0.10698044698879898,0.0,3.0,-0.10698044698879898,10.388706780612779,8.871540265120409,0.0007118525381992066,293.0,274.0,6.085324232081911,0.1386861313868613,0.309255079006772,3351.0,9210.0,96.0,102.0,0.0,0.0,0.0,1.0,,0.0,0.011074918566775244,0.0,0.0,0.0,0.0,0.0,0.0,0.0,0.0,0.0,0.0
228,3595.0,9210.0,5.123783031988873,0.0014256491463519403,0.0014288453230843743,0.9564771626580365,-0.10698044698879898,0.0,3.0,-0.10698044698879898,10.388706780612779,8.871540265120409,0.0007118525381992066,293.0,274.0,6.085324232081911,0.1386861313868613,0.309255079006772,3351.0,9210.0,96.0,102.0,0.0,0.0,0.0,1.0,,0.0,0.011074918566775244,0.0,0.0,0.0,0.0,0.0,0.0,0.0,0.0,0.0,0.0
229,3595.0,9210.0,5.123783031988873,0.0014256491463519403,0.0014288453230843743,0.9564771626580365,-0.10698044698879898,0.0,3.0,-0.10698044698879898,10.388706780612779,8.871540265120409,0.0007118525381992066,293.0,274.0,6.085324232081911,0.1386861313868613,0.309255079006772,3351.0,9210.0,96.0,102.0,0.0,0.0,0.0,1.0,,0.0,0.011074918566775244,0.0,0.0,0.0,0.0,0.0,0.0,0.0,0.0,0.0,0.0
230,3595.0,9210.0,5.123783031988873,0.0014256491463519403,0.0014288453230843743,0.9564771626580365,-0.10698044698879898,0.0,3.0,-0.10698044698879898,10.388706780612779,8.871540265120409,0.0007118525381992066,293.0,274.0,6.085324232081911,0.1386861313868613,0.309255079006772,3351.0,9210.0,96.0,102.0,0.0,0.0,0.0,1.0,,0.0,0.011074918566775244,0.0,0.0,0.0,0.0,0.0,0.0,0.0,0.0,0.0,0.0
231,3595.0,9210.0,5.123783031988873,0.0014256491463519403,0.0014288453230843743,0.9564771626580365,-0.10698044698879898,0.0,3.0,-0.10698044698879898,10.388706780612779,8.871540265120409,0.0007118525381992066,293.0,274.0,6.085324232081911,0.1386861313868613,0.309255079006772,3351.0,9210.0,96.0,102.0,0.0,0.0,0.0,1.0,,0.0,0.011074918566775244,0.0,0.0,0.0,0.0,0.0,0.0,0.0,0.0,0.0,0.0
232,3595.0,9210.0,5.123783031988873,0.0014256491463519403,0.0014288453230843743,0.9564771626580365,-0.10698044698879898,0.0,3.0,-0.10698044698879898,10.388706780612779,8.871540265120409,0.0007118525381992066,293.0,274.0,6.085324232081911,0.1386861313868613,0.309255079006772,3351.0,9210.0,96.0,102.0,0.0,0.0,0.0,1.0,,0.0,0.011074918566775244,0.0,0.0,0.0,0.0,0.0,0.0,0.0,0.0,0.0,0.0
233,3595.0,9210.0,5.123783031988873,0.0014256491463519403,0.0014288453230843743,0.9564771626580365,-0.10698044698879898,0.0,3.0,-0.10698044698879898,10.388706780612779,8.871540265120409,0.0007118525381992066,293.0,274.0,6.085324232081911,0.1386861313868613,0.309255079006772,3351.0,9210.0,96.0,102.0,0.0,0.0,0.0,1.0,,0.0,0.011074918566775244,0.0,0.0,0.0,0.0,0.0,0.0,0.0,0.0,0.0,0.0
234,3595.0,9210.0,5.123783031988873,0.0014256491463519403,0.0014288453230843743,0.9564771626580365,-0.10698044698879898,0.0,3.0,-0.10698044698879898,10.388706780612779,8.871540265120409,0.0007118525381992066,293.0,274.0,6.085324232081911,0.1386861313868613,0.309255079006772,3351.0,9210.0,96.0,102.0,0.0,0.0,0.0,1.0,,0.0,0.011074918566775244,0.0,0.0,0.0,0.0,0.0,0.0,0.0,0.0,0.0,0.0
235,3626.0,9263.0,5.109211252068395,0.001409437586777488,0.0014178663885128482,0.9592234375449836,-0.1067095167547434,0.0,3.0,-0.1067095167547434,10.400154133994732,8.87594430677571,0.000703763862695389,293.0,274.0,6.146757679180888,0.1386861313868613,0.309255079006772,3372.0,9263.0,100.0,106.0,0.0,0.0,0.0,1.0,0.0,0.0,0.011443376875742201,0.0,0.0,0.0,0.0,0.0,0.0,0.0,0.0,0.0,0.0
236,3626.0,9263.0,5.109211252068395,0.001409437586777488,0.0014178663885128482,0.9592234375449836,-0.1067095167547434,0.0,3.0,-0.1067095167547434,10.400154133994732,8.87594430677571,0.000703763862695389,293.0,274.0,6.146757679180888,0.1386861313868613,0.309255079006772,3372.0,9263.0,100.0,106.0,0.0,0.0,0.0,1.0,,0.0,0.011443376875742201,0.0,0.0,0.0,0.0,0.0,0.0,0.0,0.0,0.0,0.0
237,3644.0,9297.0,5.102634467618002,0.001400668259022235,0.0014119838160307518,0.9596804972988908,-0.10732307715800704,0.0,3.0,-0.10732307715800704,10.407282944909362,8.880575473507337,0.0006993888574936651,293.0,274.0,6.180887372013652,0.1386861313868613,0.309255079006772,3385.0,9297.0,102.0,108.0,0.0,0.0,0.0,1.0,0.0,0.0,0.011616650532429816,0.0,0.0,0.0,0.0,0.0,0.0,0.0,0.0,0.0,0.0
238,3644.0,9297.0,5.102634467618002,0.001400668259022235,0.0014119838160307518,0.9596804972988908,-0.10732307715800704,0.0,3.0,-0.10732307715800704,10.407282944909362,8.880575473507337,0.0006993888574936651,293.0,274.0,6.180887372013652,0.1386861313868613,0.309255079006772,3385.0,9297.0,102.0,108.0,0.0,0.0,0.0,1.0,,0.0,0.011616650532429816,0.0,0.0,0.0,0.0,0.0,0.0,0.0,0.0,0.0,0.0
239,3644.0,9297.0,5.102634467618002,0.001400668259022235,0.0014119838160307518,0.9596804972988908,-0.10732307715800704,0.0,3.0,-0.10732307715800704,10.407282944909362,8.880575473507337,0.0006993888574936651,293.0,274.0,6.180887372013652,0.1386861313868613,0.309255079006772,3385.0,9297.0,102.0,108.0,0.0,0.0,0.0,1.0,,0.0,0.011616650532429816,0.0,0.0,0.0,0.0,0.0,0.0,0.0,0.0,0.0,0.0
240,3644.0,9297.0,5.102634467618002,0.001400668259022235,0.0014119838160307518,0.9596804972988908,-0.10732307715800704,0.0,3.0,-0.10732307715800704,10.407282944909362,8.880575473507337,0.0006993888574936651,293.0,274.0,6.180887372013652,0.1386861313868613,0.309255079006772,3385.0,9297.0,102.0,108.0,0.0,0.0,0.0,1.0,,0.0,0.011616650532429816,0.0,0.0,0.0,0.0,0.0,0.0,0.0,0.0,0.0,0.0
241,3644.0,9297.0,5.102634467618002,0.001400668259022235,0.0014119838160307518,0.9596804972988908,-0.10732307715800704,0.0,3.0,-0.10732307715800704,10.407282944909362,8.880575473507337,0.0006993888574936651,293.0,274.0,6.180887372013652,0.1386861313868613,0.309255079006772,3385.0,9297.0,102.0,108.0,0.0,0.0,0.0,1.0,,0.0,0.011616650532429816,0.0,0.0,0.0,0.0,0.0,0.0,0.0,0.0,0.0,0.0
242,3653.0,9315.0,5.099917875718588,0.001396472583712647,0.0014097608377172737,0.9608635866145809,-0.1076608862826215,0.0,3.0,-0.1076608862826215,10.410485570084184,8.880953661098115,0.0006972957738330712,293.0,274.0,6.204778156996587,0.1386861313868613,0.309255079006772,3394.0,9315.0,103.0,109.0,0.0,0.0,0.0,1.0,0.0,0.0,0.011701556629092861,0.0,0.0,0.0,0.0,0.0,0.0,0.0,0.0,0.0,0.0
