Turn,GROUP A - Total nodes,GROUP A - Total edges,GROUP A - Average degree,GROUP A - Average degree centrality,GROUP A - Average closeness,GROUP A - Average degree connectivity,GROUP A - Average assortativity,GROUP A - Average node connectivity,GROUP A - Number of components,GROUP A - Number of strong components,GROUP A - Centrality entropy,GROUP A - Closeness entropy,GROUP A - Sparseness,GROUP B - Total classes,GROUP B - Total properties,GROUP B - Average population,GROUP B - Attribute richness,GROUP B - Relationship richness,GROUP B - Total axioms,GROUP C - Total triples,GROUP C - Total world instances,GROUP C - Total claims,GROUP C - Total perspectives,GROUP C - Total mentions,GROUP C - Total conflicts,GROUP C - Total sources,GROUP C - Total interactions,GROUP C - Total utterances,GROUP C - Ratio claim to triples,GROUP C - Ratio perspectives to triples,GROUP C - Ratio conflicts to triples,GROUP C - Ratio perspectives to claims,GROUP C - Ratio mentions to claims,GROUP C - Ratio conflicts to claims,GROUP C - Average perspectives per claim,GROUP C - Average mentions per claim,GROUP C - Average turns per interaction,GROUP C - Average claims per source,GROUP C - Average perspectives per source
0,2870.0,7906.0,5.509407665505226,0.0019203233410614244,0.0017210902516714033,0.8596768057594533,-0.11746526166007984,0.0,3.0,-0.11746526166007984,10.048989987248374,8.553952455944422,0.000958613070451262,294.0,267.0,4.442176870748299,0.14232209737827714,0.3037542662116041,2769.0,7906.0,0.0,0.0,0.0,0.0,0.0,0.0,0.0,0.0,0.0,0.0,0.0,0.0,0.0,0.0,0.0,0.0,0.0,0.0,0.0
1,2870.0,7906.0,5.509407665505226,0.0019203233410614244,0.0017210902516714033,0.8596768057594533,-0.11746526166007984,0.0,3.0,-0.11746526166007984,10.048989987248374,8.553952455944422,0.000958613070451262,294.0,267.0,4.442176870748299,0.14232209737827714,0.3037542662116041,2769.0,7906.0,0.0,0.0,0.0,0.0,0.0,0.0,,0.0,0.0,0.0,0.0,0.0,0.0,0.0,0.0,0.0,0.0,0.0,0.0
2,2870.0,7906.0,5.509407665505226,0.0019203233410614244,0.0017210902516714033,0.8596768057594533,-0.11746526166007984,0.0,3.0,-0.11746526166007984,10.048989987248374,8.553952455944422,0.000958613070451262,294.0,267.0,4.442176870748299,0.14232209737827714,0.3037542662116041,2769.0,7906.0,0.0,0.0,0.0,0.0,0.0,0.0,,0.0,0.0,0.0,0.0,0.0,0.0,0.0,0.0,0.0,0.0,0.0,0.0
3,2929.0,8020.0,5.476271765107545,0.0018703113951870028,0.0016961748810843922,0.8701868195405915,-0.1151083205509429,0.0,3.0,-0.1151083205509429,10.087079947264769,8.631541834988868,0.0009336707914089699,294.0,267.0,4.595238095238095,0.14232209737827714,0.3037542662116041,2838.0,8020.0,5.0,3.0,1.0,1.0,0.0,2.0,0.0,1.0,0.0003740648379052369,0.00012468827930174563,0.0,0.3333333333333333,0.3333333333333333,0.0,1.0,1.0,1.0,1.0,1.0
4,2929.0,8020.0,5.476271765107545,0.0018703113951870028,0.0016961748810843922,0.8701868195405915,-0.1151083205509429,0.0,3.0,-0.1151083205509429,10.087079947264769,8.631541834988868,0.0009336707914089699,294.0,267.0,4.595238095238095,0.14232209737827714,0.3037542662116041,2838.0,8020.0,5.0,3.0,1.0,1.0,0.0,2.0,,1.0,0.0003740648379052369,0.00012468827930174563,0.0,0.3333333333333333,0.3333333333333333,0.0,1.0,1.0,1.0,1.0,1.0
5,2929.0,8020.0,5.476271765107545,0.0018703113951870028,0.0016961748810843922,0.8701868195405915,-0.1151083205509429,0.0,3.0,-0.1151083205509429,10.087079947264769,8.631541834988868,0.0009336707914089699,294.0,267.0,4.595238095238095,0.14232209737827714,0.3037542662116041,2838.0,8020.0,5.0,3.0,1.0,1.0,0.0,2.0,,1.0,0.0003740648379052369,0.00012468827930174563,0.0,0.3333333333333333,0.3333333333333333,0.0,1.0,1.0,1.0,1.0,1.0
6,2929.0,8020.0,5.476271765107545,0.0018703113951870028,0.0016961748810843922,0.8701868195405915,-0.1151083205509429,0.0,3.0,-0.1151083205509429,10.087079947264769,8.631541834988868,0.0009336707914089699,294.0,267.0,4.595238095238095,0.14232209737827714,0.3037542662116041,2838.0,8020.0,5.0,3.0,1.0,1.0,0.0,2.0,,1.0,0.0003740648379052369,0.00012468827930174563,0.0,0.3333333333333333,0.3333333333333333,0.0,1.0,1.0,1.0,1.0,1.0
7,2929.0,8020.0,5.476271765107545,0.0018703113951870028,0.0016961748810843922,0.8701868195405915,-0.1151083205509429,0.0,3.0,-0.1151083205509429,10.087079947264769,8.631541834988868,0.0009336707914089699,294.0,267.0,4.595238095238095,0.14232209737827714,0.3037542662116041,2838.0,8020.0,5.0,3.0,1.0,1.0,0.0,2.0,,1.0,0.0003740648379052369,0.00012468827930174563,0.0,0.3333333333333333,0.3333333333333333,0.0,1.0,1.0,1.0,1.0,1.0
8,2929.0,8020.0,5.476271765107545,0.0018703113951870028,0.0016961748810843922,0.8701868195405915,-0.1151083205509429,0.0,3.0,-0.1151083205509429,10.087079947264769,8.631541834988868,0.0009336707914089699,294.0,267.0,4.595238095238095,0.14232209737827714,0.3037542662116041,2838.0,8020.0,5.0,3.0,1.0,1.0,0.0,2.0,,1.0,0.0003740648379052369,0.00012468827930174563,0.0,0.3333333333333333,0.3333333333333333,0.0,1.0,1.0,1.0,1.0,1.0
9,2929.0,8020.0,5.476271765107545,0.0018703113951870028,0.0016961748810843922,0.8701868195405915,-0.1151083205509429,0.0,3.0,-0.1151083205509429,10.087079947264769,8.631541834988868,0.0009336707914089699,294.0,267.0,4.595238095238095,0.14232209737827714,0.3037542662116041,2838.0,8020.0,5.0,3.0,1.0,1.0,0.0,2.0,,1.0,0.0003740648379052369,0.00012468827930174563,0.0,0.3333333333333333,0.3333333333333333,0.0,1.0,1.0,1.0,1.0,1.0
10,2929.0,8020.0,5.476271765107545,0.0018703113951870028,0.0016961748810843922,0.8701868195405915,-0.1151083205509429,0.0,3.0,-0.1151083205509429,10.087079947264769,8.631541834988868,0.0009336707914089699,294.0,267.0,4.595238095238095,0.14232209737827714,0.3037542662116041,2838.0,8020.0,5.0,3.0,1.0,1.0,0.0,2.0,,1.0,0.0003740648379052369,0.00012468827930174563,0.0,0.3333333333333333,0.3333333333333333,0.0,1.0,1.0,1.0,1.0,1.0
11,2929.0,8020.0,5.476271765107545,0.0018703113951870028,0.0016961748810843922,0.8701868195405915,-0.1151083205509429,0.0,3.0,-0.1151083205509429,10.087079947264769,8.631541834988868,0.0009336707914089699,294.0,267.0,4.595238095238095,0.14232209737827714,0.3037542662116041,2838.0,8020.0,5.0,3.0,1.0,1.0,0.0,2.0,,1.0,0.0003740648379052369,0.00012468827930174563,0.0,0.3333333333333333,0.3333333333333333,0.0,1.0,1.0,1.0,1.0,1.0
12,2929.0,8020.0,5.476271765107545,0.0018703113951870028,0.0016961748810843922,0.8701868195405915,-0.1151083205509429,0.0,3.0,-0.1151083205509429,10.087079947264769,8.631541834988868,0.0009336707914089699,294.0,267.0,4.595238095238095,0.14232209737827714,0.3037542662116041,2838.0,8020.0,5.0,3.0,1.0,1.0,0.0,2.0,,1.0,0.0003740648379052369,0.00012468827930174563,0.0,0.3333333333333333,0.3333333333333333,0.0,1.0,1.0,1.0,1.0,1.0
13,2929.0,8020.0,5.476271765107545,0.0018703113951870028,0.0016961748810843922,0.8701868195405915,-0.1151083205509429,0.0,3.0,-0.1151083205509429,10.087079947264769,8.631541834988868,0.0009336707914089699,294.0,267.0,4.595238095238095,0.14232209737827714,0.3037542662116041,2838.0,8020.0,5.0,3.0,1.0,1.0,0.0,2.0,,1.0,0.0003740648379052369,0.00012468827930174563,0.0,0.3333333333333333,0.3333333333333333,0.0,1.0,1.0,1.0,1.0,1.0
14,2929.0,8020.0,5.476271765107545,0.0018703113951870028,0.0016961748810843922,0.8701868195405915,-0.1151083205509429,0.0,3.0,-0.1151083205509429,10.087079947264769,8.631541834988868,0.0009336707914089699,294.0,267.0,4.595238095238095,0.14232209737827714,0.3037542662116041,2838.0,8020.0,5.0,3.0,1.0,1.0,0.0,2.0,,1.0,0.0003740648379052369,0.00012468827930174563,0.0,0.3333333333333333,0.3333333333333333,0.0,1.0,1.0,1.0,1.0,1.0
15,2929.0,8020.0,5.476271765107545,0.0018703113951870028,0.0016961748810843922,0.8701868195405915,-0.1151083205509429,0.0,3.0,-0.1151083205509429,10.087079947264769,8.631541834988868,0.0009336707914089699,294.0,267.0,4.595238095238095,0.14232209737827714,0.3037542662116041,2838.0,8020.0,5.0,3.0,1.0,1.0,0.0,2.0,,1.0,0.0003740648379052369,0.00012468827930174563,0.0,0.3333333333333333,0.3333333333333333,0.0,1.0,1.0,1.0,1.0,1.0
16,2929.0,8020.0,5.476271765107545,0.0018703113951870028,0.0016961748810843922,0.8701868195405915,-0.1151083205509429,0.0,3.0,-0.1151083205509429,10.087079947264769,8.631541834988868,0.0009336707914089699,294.0,267.0,4.595238095238095,0.14232209737827714,0.3037542662116041,2838.0,8020.0,5.0,3.0,1.0,1.0,0.0,2.0,,1.0,0.0003740648379052369,0.00012468827930174563,0.0,0.3333333333333333,0.3333333333333333,0.0,1.0,1.0,1.0,1.0,1.0
17,2929.0,8020.0,5.476271765107545,0.0018703113951870028,0.0016961748810843922,0.8701868195405915,-0.1151083205509429,0.0,3.0,-0.1151083205509429,10.087079947264769,8.631541834988868,0.0009336707914089699,294.0,267.0,4.595238095238095,0.14232209737827714,0.3037542662116041,2838.0,8020.0,5.0,3.0,1.0,1.0,0.0,2.0,,1.0,0.0003740648379052369,0.00012468827930174563,0.0,0.3333333333333333,0.3333333333333333,0.0,1.0,1.0,1.0,1.0,1.0
18,2929.0,8020.0,5.476271765107545,0.0018703113951870028,0.0016961748810843922,0.8701868195405915,-0.1151083205509429,0.0,3.0,-0.1151083205509429,10.087079947264769,8.631541834988868,0.0009336707914089699,294.0,267.0,4.595238095238095,0.14232209737827714,0.3037542662116041,2838.0,8020.0,5.0,3.0,1.0,1.0,0.0,2.0,,1.0,0.0003740648379052369,0.00012468827930174563,0.0,0.3333333333333333,0.3333333333333333,0.0,1.0,1.0,1.0,1.0,1.0
19,2929.0,8020.0,5.476271765107545,0.0018703113951870028,0.0016961748810843922,0.8701868195405915,-0.1151083205509429,0.0,3.0,-0.1151083205509429,10.087079947264769,8.631541834988868,0.0009336707914089699,294.0,267.0,4.595238095238095,0.14232209737827714,0.3037542662116041,2838.0,8020.0,5.0,3.0,1.0,1.0,0.0,2.0,,1.0,0.0003740648379052369,0.00012468827930174563,0.0,0.3333333333333333,0.3333333333333333,0.0,1.0,1.0,1.0,1.0,1.0
20,2929.0,8020.0,5.476271765107545,0.0018703113951870028,0.0016961748810843922,0.8701868195405915,-0.1151083205509429,0.0,3.0,-0.1151083205509429,10.087079947264769,8.631541834988868,0.0009336707914089699,294.0,267.0,4.595238095238095,0.14232209737827714,0.3037542662116041,2838.0,8020.0,5.0,3.0,1.0,1.0,0.0,2.0,,1.0,0.0003740648379052369,0.00012468827930174563,0.0,0.3333333333333333,0.3333333333333333,0.0,1.0,1.0,1.0,1.0,1.0
21,2929.0,8020.0,5.476271765107545,0.0018703113951870028,0.0016961748810843922,0.8701868195405915,-0.1151083205509429,0.0,3.0,-0.1151083205509429,10.087079947264769,8.631541834988868,0.0009336707914089699,294.0,267.0,4.595238095238095,0.14232209737827714,0.3037542662116041,2838.0,8020.0,5.0,3.0,1.0,1.0,0.0,2.0,,1.0,0.0003740648379052369,0.00012468827930174563,0.0,0.3333333333333333,0.3333333333333333,0.0,1.0,1.0,1.0,1.0,1.0
22,2929.0,8020.0,5.476271765107545,0.0018703113951870028,0.0016961748810843922,0.8701868195405915,-0.1151083205509429,0.0,3.0,-0.1151083205509429,10.087079947264769,8.631541834988868,0.0009336707914089699,294.0,267.0,4.595238095238095,0.14232209737827714,0.3037542662116041,2838.0,8020.0,5.0,3.0,1.0,1.0,0.0,2.0,,1.0,0.0003740648379052369,0.00012468827930174563,0.0,0.3333333333333333,0.3333333333333333,0.0,1.0,1.0,1.0,1.0,1.0
23,2929.0,8020.0,5.476271765107545,0.0018703113951870028,0.0016961748810843922,0.8701868195405915,-0.1151083205509429,0.0,3.0,-0.1151083205509429,10.087079947264769,8.631541834988868,0.0009336707914089699,294.0,267.0,4.595238095238095,0.14232209737827714,0.3037542662116041,2838.0,8020.0,5.0,3.0,1.0,1.0,0.0,2.0,,1.0,0.0003740648379052369,0.00012468827930174563,0.0,0.3333333333333333,0.3333333333333333,0.0,1.0,1.0,1.0,1.0,1.0
24,2929.0,8020.0,5.476271765107545,0.0018703113951870028,0.0016961748810843922,0.8701868195405915,-0.1151083205509429,0.0,3.0,-0.1151083205509429,10.087079947264769,8.631541834988868,0.0009336707914089699,294.0,267.0,4.595238095238095,0.14232209737827714,0.3037542662116041,2838.0,8020.0,5.0,3.0,1.0,1.0,0.0,2.0,,1.0,0.0003740648379052369,0.00012468827930174563,0.0,0.3333333333333333,0.3333333333333333,0.0,1.0,1.0,1.0,1.0,1.0
25,2929.0,8020.0,5.476271765107545,0.0018703113951870028,0.0016961748810843922,0.8701868195405915,-0.1151083205509429,0.0,3.0,-0.1151083205509429,10.087079947264769,8.631541834988868,0.0009336707914089699,294.0,267.0,4.595238095238095,0.14232209737827714,0.3037542662116041,2838.0,8020.0,5.0,3.0,1.0,1.0,0.0,2.0,,1.0,0.0003740648379052369,0.00012468827930174563,0.0,0.3333333333333333,0.3333333333333333,0.0,1.0,1.0,1.0,1.0,1.0
26,2929.0,8020.0,5.476271765107545,0.0018703113951870028,0.0016961748810843922,0.8701868195405915,-0.1151083205509429,0.0,3.0,-0.1151083205509429,10.087079947264769,8.631541834988868,0.0009336707914089699,294.0,267.0,4.595238095238095,0.14232209737827714,0.3037542662116041,2838.0,8020.0,5.0,3.0,1.0,1.0,0.0,2.0,,1.0,0.0003740648379052369,0.00012468827930174563,0.0,0.3333333333333333,0.3333333333333333,0.0,1.0,1.0,1.0,1.0,1.0
27,2929.0,8020.0,5.476271765107545,0.0018703113951870028,0.0016961748810843922,0.8701868195405915,-0.1151083205509429,0.0,3.0,-0.1151083205509429,10.087079947264769,8.631541834988868,0.0009336707914089699,294.0,267.0,4.595238095238095,0.14232209737827714,0.3037542662116041,2838.0,8020.0,5.0,3.0,1.0,1.0,0.0,2.0,,1.0,0.0003740648379052369,0.00012468827930174563,0.0,0.3333333333333333,0.3333333333333333,0.0,1.0,1.0,1.0,1.0,1.0
28,2929.0,8020.0,5.476271765107545,0.0018703113951870028,0.0016961748810843922,0.8701868195405915,-0.1151083205509429,0.0,3.0,-0.1151083205509429,10.087079947264769,8.631541834988868,0.0009336707914089699,294.0,267.0,4.595238095238095,0.14232209737827714,0.3037542662116041,2838.0,8020.0,5.0,3.0,1.0,1.0,0.0,2.0,,1.0,0.0003740648379052369,0.00012468827930174563,0.0,0.3333333333333333,0.3333333333333333,0.0,1.0,1.0,1.0,1.0,1.0
29,2929.0,8020.0,5.476271765107545,0.0018703113951870028,0.0016961748810843922,0.8701868195405915,-0.1151083205509429,0.0,3.0,-0.1151083205509429,10.087079947264769,8.631541834988868,0.0009336707914089699,294.0,267.0,4.595238095238095,0.14232209737827714,0.3037542662116041,2838.0,8020.0,5.0,3.0,1.0,1.0,0.0,2.0,,1.0,0.0003740648379052369,0.00012468827930174563,0.0,0.3333333333333333,0.3333333333333333,0.0,1.0,1.0,1.0,1.0,1.0
30,2929.0,8020.0,5.476271765107545,0.0018703113951870028,0.0016961748810843922,0.8701868195405915,-0.1151083205509429,0.0,3.0,-0.1151083205509429,10.087079947264769,8.631541834988868,0.0009336707914089699,294.0,267.0,4.595238095238095,0.14232209737827714,0.3037542662116041,2838.0,8020.0,5.0,3.0,1.0,1.0,0.0,2.0,,1.0,0.0003740648379052369,0.00012468827930174563,0.0,0.3333333333333333,0.3333333333333333,0.0,1.0,1.0,1.0,1.0,1.0
31,2929.0,8020.0,5.476271765107545,0.0018703113951870028,0.0016961748810843922,0.8701868195405915,-0.1151083205509429,0.0,3.0,-0.1151083205509429,10.087079947264769,8.631541834988868,0.0009336707914089699,294.0,267.0,4.595238095238095,0.14232209737827714,0.3037542662116041,2838.0,8020.0,5.0,3.0,1.0,1.0,0.0,2.0,,1.0,0.0003740648379052369,0.00012468827930174563,0.0,0.3333333333333333,0.3333333333333333,0.0,1.0,1.0,1.0,1.0,1.0
32,2929.0,8020.0,5.476271765107545,0.0018703113951870028,0.0016961748810843922,0.8701868195405915,-0.1151083205509429,0.0,3.0,-0.1151083205509429,10.087079947264769,8.631541834988868,0.0009336707914089699,294.0,267.0,4.595238095238095,0.14232209737827714,0.3037542662116041,2838.0,8020.0,5.0,3.0,1.0,1.0,0.0,2.0,,1.0,0.0003740648379052369,0.00012468827930174563,0.0,0.3333333333333333,0.3333333333333333,0.0,1.0,1.0,1.0,1.0,1.0
33,2929.0,8020.0,5.476271765107545,0.0018703113951870028,0.0016961748810843922,0.8701868195405915,-0.1151083205509429,0.0,3.0,-0.1151083205509429,10.087079947264769,8.631541834988868,0.0009336707914089699,294.0,267.0,4.595238095238095,0.14232209737827714,0.3037542662116041,2838.0,8020.0,5.0,3.0,1.0,1.0,0.0,2.0,,1.0,0.0003740648379052369,0.00012468827930174563,0.0,0.3333333333333333,0.3333333333333333,0.0,1.0,1.0,1.0,1.0,1.0
34,2929.0,8020.0,5.476271765107545,0.0018703113951870028,0.0016961748810843922,0.8701868195405915,-0.1151083205509429,0.0,3.0,-0.1151083205509429,10.087079947264769,8.631541834988868,0.0009336707914089699,294.0,267.0,4.595238095238095,0.14232209737827714,0.3037542662116041,2838.0,8020.0,5.0,3.0,1.0,1.0,0.0,2.0,,1.0,0.0003740648379052369,0.00012468827930174563,0.0,0.3333333333333333,0.3333333333333333,0.0,1.0,1.0,1.0,1.0,1.0
35,2929.0,8020.0,5.476271765107545,0.0018703113951870028,0.0016961748810843922,0.8701868195405915,-0.1151083205509429,0.0,3.0,-0.1151083205509429,10.087079947264769,8.631541834988868,0.0009336707914089699,294.0,267.0,4.595238095238095,0.14232209737827714,0.3037542662116041,2838.0,8020.0,5.0,3.0,1.0,1.0,0.0,2.0,,1.0,0.0003740648379052369,0.00012468827930174563,0.0,0.3333333333333333,0.3333333333333333,0.0,1.0,1.0,1.0,1.0,1.0
36,2929.0,8020.0,5.476271765107545,0.0018703113951870028,0.0016961748810843922,0.8701868195405915,-0.1151083205509429,0.0,3.0,-0.1151083205509429,10.087079947264769,8.631541834988868,0.0009336707914089699,294.0,267.0,4.595238095238095,0.14232209737827714,0.3037542662116041,2838.0,8020.0,5.0,3.0,1.0,1.0,0.0,2.0,,1.0,0.0003740648379052369,0.00012468827930174563,0.0,0.3333333333333333,0.3333333333333333,0.0,1.0,1.0,1.0,1.0,1.0
37,2929.0,8020.0,5.476271765107545,0.0018703113951870028,0.0016961748810843922,0.8701868195405915,-0.1151083205509429,0.0,3.0,-0.1151083205509429,10.087079947264769,8.631541834988868,0.0009336707914089699,294.0,267.0,4.595238095238095,0.14232209737827714,0.3037542662116041,2838.0,8020.0,5.0,3.0,1.0,1.0,0.0,2.0,,1.0,0.0003740648379052369,0.00012468827930174563,0.0,0.3333333333333333,0.3333333333333333,0.0,1.0,1.0,1.0,1.0,1.0
38,2929.0,8020.0,5.476271765107545,0.0018703113951870028,0.0016961748810843922,0.8701868195405915,-0.1151083205509429,0.0,3.0,-0.1151083205509429,10.087079947264769,8.631541834988868,0.0009336707914089699,294.0,267.0,4.595238095238095,0.14232209737827714,0.3037542662116041,2838.0,8020.0,5.0,3.0,1.0,1.0,0.0,2.0,,1.0,0.0003740648379052369,0.00012468827930174563,0.0,0.3333333333333333,0.3333333333333333,0.0,1.0,1.0,1.0,1.0,1.0
39,2929.0,8020.0,5.476271765107545,0.0018703113951870028,0.0016961748810843922,0.8701868195405915,-0.1151083205509429,0.0,3.0,-0.1151083205509429,10.087079947264769,8.631541834988868,0.0009336707914089699,294.0,267.0,4.595238095238095,0.14232209737827714,0.3037542662116041,2838.0,8020.0,5.0,3.0,1.0,1.0,0.0,2.0,,1.0,0.0003740648379052369,0.00012468827930174563,0.0,0.3333333333333333,0.3333333333333333,0.0,1.0,1.0,1.0,1.0,1.0
40,2929.0,8020.0,5.476271765107545,0.0018703113951870028,0.0016961748810843922,0.8701868195405915,-0.1151083205509429,0.0,3.0,-0.1151083205509429,10.087079947264769,8.631541834988868,0.0009336707914089699,294.0,267.0,4.595238095238095,0.14232209737827714,0.3037542662116041,2838.0,8020.0,5.0,3.0,1.0,1.0,0.0,2.0,,1.0,0.0003740648379052369,0.00012468827930174563,0.0,0.3333333333333333,0.3333333333333333,0.0,1.0,1.0,1.0,1.0,1.0
41,2929.0,8020.0,5.476271765107545,0.0018703113951870028,0.0016961748810843922,0.8701868195405915,-0.1151083205509429,0.0,3.0,-0.1151083205509429,10.087079947264769,8.631541834988868,0.0009336707914089699,294.0,267.0,4.595238095238095,0.14232209737827714,0.3037542662116041,2838.0,8020.0,5.0,3.0,1.0,1.0,0.0,2.0,,1.0,0.0003740648379052369,0.00012468827930174563,0.0,0.3333333333333333,0.3333333333333333,0.0,1.0,1.0,1.0,1.0,1.0
42,2929.0,8020.0,5.476271765107545,0.0018703113951870028,0.0016961748810843922,0.8701868195405915,-0.1151083205509429,0.0,3.0,-0.1151083205509429,10.087079947264769,8.631541834988868,0.0009336707914089699,294.0,267.0,4.595238095238095,0.14232209737827714,0.3037542662116041,2838.0,8020.0,5.0,3.0,1.0,1.0,0.0,2.0,,1.0,0.0003740648379052369,0.00012468827930174563,0.0,0.3333333333333333,0.3333333333333333,0.0,1.0,1.0,1.0,1.0,1.0
43,2929.0,8020.0,5.476271765107545,0.0018703113951870028,0.0016961748810843922,0.8701868195405915,-0.1151083205509429,0.0,3.0,-0.1151083205509429,10.087079947264769,8.631541834988868,0.0009336707914089699,294.0,267.0,4.595238095238095,0.14232209737827714,0.3037542662116041,2838.0,8020.0,5.0,3.0,1.0,1.0,0.0,2.0,,1.0,0.0003740648379052369,0.00012468827930174563,0.0,0.3333333333333333,0.3333333333333333,0.0,1.0,1.0,1.0,1.0,1.0
44,2929.0,8020.0,5.476271765107545,0.0018703113951870028,0.0016961748810843922,0.8701868195405915,-0.1151083205509429,0.0,3.0,-0.1151083205509429,10.087079947264769,8.631541834988868,0.0009336707914089699,294.0,267.0,4.595238095238095,0.14232209737827714,0.3037542662116041,2838.0,8020.0,5.0,3.0,1.0,1.0,0.0,2.0,,1.0,0.0003740648379052369,0.00012468827930174563,0.0,0.3333333333333333,0.3333333333333333,0.0,1.0,1.0,1.0,1.0,1.0
45,2929.0,8020.0,5.476271765107545,0.0018703113951870028,0.0016961748810843922,0.8701868195405915,-0.1151083205509429,0.0,3.0,-0.1151083205509429,10.087079947264769,8.631541834988868,0.0009336707914089699,294.0,267.0,4.595238095238095,0.14232209737827714,0.3037542662116041,2838.0,8020.0,5.0,3.0,1.0,1.0,0.0,2.0,,1.0,0.0003740648379052369,0.00012468827930174563,0.0,0.3333333333333333,0.3333333333333333,0.0,1.0,1.0,1.0,1.0,1.0
46,2929.0,8020.0,5.476271765107545,0.0018703113951870028,0.0016961748810843922,0.8701868195405915,-0.1151083205509429,0.0,3.0,-0.1151083205509429,10.087079947264769,8.631541834988868,0.0009336707914089699,294.0,267.0,4.595238095238095,0.14232209737827714,0.3037542662116041,2838.0,8020.0,5.0,3.0,1.0,1.0,0.0,2.0,,1.0,0.0003740648379052369,0.00012468827930174563,0.0,0.3333333333333333,0.3333333333333333,0.0,1.0,1.0,1.0,1.0,1.0
47,2929.0,8020.0,5.476271765107545,0.0018703113951870028,0.0016961748810843922,0.8701868195405915,-0.1151083205509429,0.0,3.0,-0.1151083205509429,10.087079947264769,8.631541834988868,0.0009336707914089699,294.0,267.0,4.595238095238095,0.14232209737827714,0.3037542662116041,2838.0,8020.0,5.0,3.0,1.0,1.0,0.0,2.0,,1.0,0.0003740648379052369,0.00012468827930174563,0.0,0.3333333333333333,0.3333333333333333,0.0,1.0,1.0,1.0,1.0,1.0
48,2929.0,8020.0,5.476271765107545,0.0018703113951870028,0.0016961748810843922,0.8701868195405915,-0.1151083205509429,0.0,3.0,-0.1151083205509429,10.087079947264769,8.631541834988868,0.0009336707914089699,294.0,267.0,4.595238095238095,0.14232209737827714,0.3037542662116041,2838.0,8020.0,5.0,3.0,1.0,1.0,0.0,2.0,,1.0,0.0003740648379052369,0.00012468827930174563,0.0,0.3333333333333333,0.3333333333333333,0.0,1.0,1.0,1.0,1.0,1.0
49,2929.0,8020.0,5.476271765107545,0.0018703113951870028,0.0016961748810843922,0.8701868195405915,-0.1151083205509429,0.0,3.0,-0.1151083205509429,10.087079947264769,8.631541834988868,0.0009336707914089699,294.0,267.0,4.595238095238095,0.14232209737827714,0.3037542662116041,2838.0,8020.0,5.0,3.0,1.0,1.0,0.0,2.0,,1.0,0.0003740648379052369,0.00012468827930174563,0.0,0.3333333333333333,0.3333333333333333,0.0,1.0,1.0,1.0,1.0,1.0
50,2929.0,8020.0,5.476271765107545,0.0018703113951870028,0.0016961748810843922,0.8701868195405915,-0.1151083205509429,0.0,3.0,-0.1151083205509429,10.087079947264769,8.631541834988868,0.0009336707914089699,294.0,267.0,4.595238095238095,0.14232209737827714,0.3037542662116041,2838.0,8020.0,5.0,3.0,1.0,1.0,0.0,2.0,,1.0,0.0003740648379052369,0.00012468827930174563,0.0,0.3333333333333333,0.3333333333333333,0.0,1.0,1.0,1.0,1.0,1.0
51,2929.0,8020.0,5.476271765107545,0.0018703113951870028,0.0016961748810843922,0.8701868195405915,-0.1151083205509429,0.0,3.0,-0.1151083205509429,10.087079947264769,8.631541834988868,0.0009336707914089699,294.0,267.0,4.595238095238095,0.14232209737827714,0.3037542662116041,2838.0,8020.0,5.0,3.0,1.0,1.0,0.0,2.0,,1.0,0.0003740648379052369,0.00012468827930174563,0.0,0.3333333333333333,0.3333333333333333,0.0,1.0,1.0,1.0,1.0,1.0
52,2929.0,8020.0,5.476271765107545,0.0018703113951870028,0.0016961748810843922,0.8701868195405915,-0.1151083205509429,0.0,3.0,-0.1151083205509429,10.087079947264769,8.631541834988868,0.0009336707914089699,294.0,267.0,4.595238095238095,0.14232209737827714,0.3037542662116041,2838.0,8020.0,5.0,3.0,1.0,1.0,0.0,2.0,,1.0,0.0003740648379052369,0.00012468827930174563,0.0,0.3333333333333333,0.3333333333333333,0.0,1.0,1.0,1.0,1.0,1.0
53,2929.0,8020.0,5.476271765107545,0.0018703113951870028,0.0016961748810843922,0.8701868195405915,-0.1151083205509429,0.0,3.0,-0.1151083205509429,10.087079947264769,8.631541834988868,0.0009336707914089699,294.0,267.0,4.595238095238095,0.14232209737827714,0.3037542662116041,2838.0,8020.0,5.0,3.0,1.0,1.0,0.0,2.0,,1.0,0.0003740648379052369,0.00012468827930174563,0.0,0.3333333333333333,0.3333333333333333,0.0,1.0,1.0,1.0,1.0,1.0
54,2929.0,8020.0,5.476271765107545,0.0018703113951870028,0.0016961748810843922,0.8701868195405915,-0.1151083205509429,0.0,3.0,-0.1151083205509429,10.087079947264769,8.631541834988868,0.0009336707914089699,294.0,267.0,4.595238095238095,0.14232209737827714,0.3037542662116041,2838.0,8020.0,5.0,3.0,1.0,1.0,0.0,2.0,,1.0,0.0003740648379052369,0.00012468827930174563,0.0,0.3333333333333333,0.3333333333333333,0.0,1.0,1.0,1.0,1.0,1.0
55,2929.0,8020.0,5.476271765107545,0.0018703113951870028,0.0016961748810843922,0.8701868195405915,-0.1151083205509429,0.0,3.0,-0.1151083205509429,10.087079947264769,8.631541834988868,0.0009336707914089699,294.0,267.0,4.595238095238095,0.14232209737827714,0.3037542662116041,2838.0,8020.0,5.0,3.0,1.0,1.0,0.0,2.0,,1.0,0.0003740648379052369,0.00012468827930174563,0.0,0.3333333333333333,0.3333333333333333,0.0,1.0,1.0,1.0,1.0,1.0
56,2929.0,8020.0,5.476271765107545,0.0018703113951870028,0.0016961748810843922,0.8701868195405915,-0.1151083205509429,0.0,3.0,-0.1151083205509429,10.087079947264769,8.631541834988868,0.0009336707914089699,294.0,267.0,4.595238095238095,0.14232209737827714,0.3037542662116041,2838.0,8020.0,5.0,3.0,1.0,1.0,0.0,2.0,,1.0,0.0003740648379052369,0.00012468827930174563,0.0,0.3333333333333333,0.3333333333333333,0.0,1.0,1.0,1.0,1.0,1.0
57,2929.0,8020.0,5.476271765107545,0.0018703113951870028,0.0016961748810843922,0.8701868195405915,-0.1151083205509429,0.0,3.0,-0.1151083205509429,10.087079947264769,8.631541834988868,0.0009336707914089699,294.0,267.0,4.595238095238095,0.14232209737827714,0.3037542662116041,2838.0,8020.0,5.0,3.0,1.0,1.0,0.0,2.0,,1.0,0.0003740648379052369,0.00012468827930174563,0.0,0.3333333333333333,0.3333333333333333,0.0,1.0,1.0,1.0,1.0,1.0
58,2929.0,8020.0,5.476271765107545,0.0018703113951870028,0.0016961748810843922,0.8701868195405915,-0.1151083205509429,0.0,3.0,-0.1151083205509429,10.087079947264769,8.631541834988868,0.0009336707914089699,294.0,267.0,4.595238095238095,0.14232209737827714,0.3037542662116041,2838.0,8020.0,5.0,3.0,1.0,1.0,0.0,2.0,,1.0,0.0003740648379052369,0.00012468827930174563,0.0,0.3333333333333333,0.3333333333333333,0.0,1.0,1.0,1.0,1.0,1.0
59,2929.0,8020.0,5.476271765107545,0.0018703113951870028,0.0016961748810843922,0.8701868195405915,-0.1151083205509429,0.0,3.0,-0.1151083205509429,10.087079947264769,8.631541834988868,0.0009336707914089699,294.0,267.0,4.595238095238095,0.14232209737827714,0.3037542662116041,2838.0,8020.0,5.0,3.0,1.0,1.0,0.0,2.0,,1.0,0.0003740648379052369,0.00012468827930174563,0.0,0.3333333333333333,0.3333333333333333,0.0,1.0,1.0,1.0,1.0,1.0
60,2929.0,8020.0,5.476271765107545,0.0018703113951870028,0.0016961748810843922,0.8701868195405915,-0.1151083205509429,0.0,3.0,-0.1151083205509429,10.087079947264769,8.631541834988868,0.0009336707914089699,294.0,267.0,4.595238095238095,0.14232209737827714,0.3037542662116041,2838.0,8020.0,5.0,3.0,1.0,1.0,0.0,2.0,,1.0,0.0003740648379052369,0.00012468827930174563,0.0,0.3333333333333333,0.3333333333333333,0.0,1.0,1.0,1.0,1.0,1.0
61,2929.0,8020.0,5.476271765107545,0.0018703113951870028,0.0016961748810843922,0.8701868195405915,-0.1151083205509429,0.0,3.0,-0.1151083205509429,10.087079947264769,8.631541834988868,0.0009336707914089699,294.0,267.0,4.595238095238095,0.14232209737827714,0.3037542662116041,2838.0,8020.0,5.0,3.0,1.0,1.0,0.0,2.0,,1.0,0.0003740648379052369,0.00012468827930174563,0.0,0.3333333333333333,0.3333333333333333,0.0,1.0,1.0,1.0,1.0,1.0
62,2929.0,8020.0,5.476271765107545,0.0018703113951870028,0.0016961748810843922,0.8701868195405915,-0.1151083205509429,0.0,3.0,-0.1151083205509429,10.087079947264769,8.631541834988868,0.0009336707914089699,294.0,267.0,4.595238095238095,0.14232209737827714,0.3037542662116041,2838.0,8020.0,5.0,3.0,1.0,1.0,0.0,2.0,,1.0,0.0003740648379052369,0.00012468827930174563,0.0,0.3333333333333333,0.3333333333333333,0.0,1.0,1.0,1.0,1.0,1.0
63,2929.0,8020.0,5.476271765107545,0.0018703113951870028,0.0016961748810843922,0.8701868195405915,-0.1151083205509429,0.0,3.0,-0.1151083205509429,10.087079947264769,8.631541834988868,0.0009336707914089699,294.0,267.0,4.595238095238095,0.14232209737827714,0.3037542662116041,2838.0,8020.0,5.0,3.0,1.0,1.0,0.0,2.0,,1.0,0.0003740648379052369,0.00012468827930174563,0.0,0.3333333333333333,0.3333333333333333,0.0,1.0,1.0,1.0,1.0,1.0
64,2929.0,8020.0,5.476271765107545,0.0018703113951870028,0.0016961748810843922,0.8701868195405915,-0.1151083205509429,0.0,3.0,-0.1151083205509429,10.087079947264769,8.631541834988868,0.0009336707914089699,294.0,267.0,4.595238095238095,0.14232209737827714,0.3037542662116041,2838.0,8020.0,5.0,3.0,1.0,1.0,0.0,2.0,,1.0,0.0003740648379052369,0.00012468827930174563,0.0,0.3333333333333333,0.3333333333333333,0.0,1.0,1.0,1.0,1.0,1.0
65,2929.0,8020.0,5.476271765107545,0.0018703113951870028,0.0016961748810843922,0.8701868195405915,-0.1151083205509429,0.0,3.0,-0.1151083205509429,10.087079947264769,8.631541834988868,0.0009336707914089699,294.0,267.0,4.595238095238095,0.14232209737827714,0.3037542662116041,2838.0,8020.0,5.0,3.0,1.0,1.0,0.0,2.0,,1.0,0.0003740648379052369,0.00012468827930174563,0.0,0.3333333333333333,0.3333333333333333,0.0,1.0,1.0,1.0,1.0,1.0
66,2929.0,8020.0,5.476271765107545,0.0018703113951870028,0.0016961748810843922,0.8701868195405915,-0.1151083205509429,0.0,3.0,-0.1151083205509429,10.087079947264769,8.631541834988868,0.0009336707914089699,294.0,267.0,4.595238095238095,0.14232209737827714,0.3037542662116041,2838.0,8020.0,5.0,3.0,1.0,1.0,0.0,2.0,,1.0,0.0003740648379052369,0.00012468827930174563,0.0,0.3333333333333333,0.3333333333333333,0.0,1.0,1.0,1.0,1.0,1.0
67,2929.0,8020.0,5.476271765107545,0.0018703113951870028,0.0016961748810843922,0.8701868195405915,-0.1151083205509429,0.0,3.0,-0.1151083205509429,10.087079947264769,8.631541834988868,0.0009336707914089699,294.0,267.0,4.595238095238095,0.14232209737827714,0.3037542662116041,2838.0,8020.0,5.0,3.0,1.0,1.0,0.0,2.0,,1.0,0.0003740648379052369,0.00012468827930174563,0.0,0.3333333333333333,0.3333333333333333,0.0,1.0,1.0,1.0,1.0,1.0
68,2929.0,8020.0,5.476271765107545,0.0018703113951870028,0.0016961748810843922,0.8701868195405915,-0.1151083205509429,0.0,3.0,-0.1151083205509429,10.087079947264769,8.631541834988868,0.0009336707914089699,294.0,267.0,4.595238095238095,0.14232209737827714,0.3037542662116041,2838.0,8020.0,5.0,3.0,1.0,1.0,0.0,2.0,,1.0,0.0003740648379052369,0.00012468827930174563,0.0,0.3333333333333333,0.3333333333333333,0.0,1.0,1.0,1.0,1.0,1.0
69,2929.0,8020.0,5.476271765107545,0.0018703113951870028,0.0016961748810843922,0.8701868195405915,-0.1151083205509429,0.0,3.0,-0.1151083205509429,10.087079947264769,8.631541834988868,0.0009336707914089699,294.0,267.0,4.595238095238095,0.14232209737827714,0.3037542662116041,2838.0,8020.0,5.0,3.0,1.0,1.0,0.0,2.0,,1.0,0.0003740648379052369,0.00012468827930174563,0.0,0.3333333333333333,0.3333333333333333,0.0,1.0,1.0,1.0,1.0,1.0
70,2929.0,8020.0,5.476271765107545,0.0018703113951870028,0.0016961748810843922,0.8701868195405915,-0.1151083205509429,0.0,3.0,-0.1151083205509429,10.087079947264769,8.631541834988868,0.0009336707914089699,294.0,267.0,4.595238095238095,0.14232209737827714,0.3037542662116041,2838.0,8020.0,5.0,3.0,1.0,1.0,0.0,2.0,,1.0,0.0003740648379052369,0.00012468827930174563,0.0,0.3333333333333333,0.3333333333333333,0.0,1.0,1.0,1.0,1.0,1.0
71,2929.0,8020.0,5.476271765107545,0.0018703113951870028,0.0016961748810843922,0.8701868195405915,-0.1151083205509429,0.0,3.0,-0.1151083205509429,10.087079947264769,8.631541834988868,0.0009336707914089699,294.0,267.0,4.595238095238095,0.14232209737827714,0.3037542662116041,2838.0,8020.0,5.0,3.0,1.0,1.0,0.0,2.0,,1.0,0.0003740648379052369,0.00012468827930174563,0.0,0.3333333333333333,0.3333333333333333,0.0,1.0,1.0,1.0,1.0,1.0
72,2929.0,8020.0,5.476271765107545,0.0018703113951870028,0.0016961748810843922,0.8701868195405915,-0.1151083205509429,0.0,3.0,-0.1151083205509429,10.087079947264769,8.631541834988868,0.0009336707914089699,294.0,267.0,4.595238095238095,0.14232209737827714,0.3037542662116041,2838.0,8020.0,5.0,3.0,1.0,1.0,0.0,2.0,,1.0,0.0003740648379052369,0.00012468827930174563,0.0,0.3333333333333333,0.3333333333333333,0.0,1.0,1.0,1.0,1.0,1.0
73,2929.0,8020.0,5.476271765107545,0.0018703113951870028,0.0016961748810843922,0.8701868195405915,-0.1151083205509429,0.0,3.0,-0.1151083205509429,10.087079947264769,8.631541834988868,0.0009336707914089699,294.0,267.0,4.595238095238095,0.14232209737827714,0.3037542662116041,2838.0,8020.0,5.0,3.0,1.0,1.0,0.0,2.0,,1.0,0.0003740648379052369,0.00012468827930174563,0.0,0.3333333333333333,0.3333333333333333,0.0,1.0,1.0,1.0,1.0,1.0
74,2929.0,8020.0,5.476271765107545,0.0018703113951870028,0.0016961748810843922,0.8701868195405915,-0.1151083205509429,0.0,3.0,-0.1151083205509429,10.087079947264769,8.631541834988868,0.0009336707914089699,294.0,267.0,4.595238095238095,0.14232209737827714,0.3037542662116041,2838.0,8020.0,5.0,3.0,1.0,1.0,0.0,2.0,,1.0,0.0003740648379052369,0.00012468827930174563,0.0,0.3333333333333333,0.3333333333333333,0.0,1.0,1.0,1.0,1.0,1.0
75,2929.0,8020.0,5.476271765107545,0.0018703113951870028,0.0016961748810843922,0.8701868195405915,-0.1151083205509429,0.0,3.0,-0.1151083205509429,10.087079947264769,8.631541834988868,0.0009336707914089699,294.0,267.0,4.595238095238095,0.14232209737827714,0.3037542662116041,2838.0,8020.0,5.0,3.0,1.0,1.0,0.0,2.0,,1.0,0.0003740648379052369,0.00012468827930174563,0.0,0.3333333333333333,0.3333333333333333,0.0,1.0,1.0,1.0,1.0,1.0
76,2929.0,8020.0,5.476271765107545,0.0018703113951870028,0.0016961748810843922,0.8701868195405915,-0.1151083205509429,0.0,3.0,-0.1151083205509429,10.087079947264769,8.631541834988868,0.0009336707914089699,294.0,267.0,4.595238095238095,0.14232209737827714,0.3037542662116041,2838.0,8020.0,5.0,3.0,1.0,1.0,0.0,2.0,,1.0,0.0003740648379052369,0.00012468827930174563,0.0,0.3333333333333333,0.3333333333333333,0.0,1.0,1.0,1.0,1.0,1.0
77,2929.0,8020.0,5.476271765107545,0.0018703113951870028,0.0016961748810843922,0.8701868195405915,-0.1151083205509429,0.0,3.0,-0.1151083205509429,10.087079947264769,8.631541834988868,0.0009336707914089699,294.0,267.0,4.595238095238095,0.14232209737827714,0.3037542662116041,2838.0,8020.0,5.0,3.0,1.0,1.0,0.0,2.0,,1.0,0.0003740648379052369,0.00012468827930174563,0.0,0.3333333333333333,0.3333333333333333,0.0,1.0,1.0,1.0,1.0,1.0
78,2929.0,8020.0,5.476271765107545,0.0018703113951870028,0.0016961748810843922,0.8701868195405915,-0.1151083205509429,0.0,3.0,-0.1151083205509429,10.087079947264769,8.631541834988868,0.0009336707914089699,294.0,267.0,4.595238095238095,0.14232209737827714,0.3037542662116041,2838.0,8020.0,5.0,3.0,1.0,1.0,0.0,2.0,,1.0,0.0003740648379052369,0.00012468827930174563,0.0,0.3333333333333333,0.3333333333333333,0.0,1.0,1.0,1.0,1.0,1.0
79,2929.0,8020.0,5.476271765107545,0.0018703113951870028,0.0016961748810843922,0.8701868195405915,-0.1151083205509429,0.0,3.0,-0.1151083205509429,10.087079947264769,8.631541834988868,0.0009336707914089699,294.0,267.0,4.595238095238095,0.14232209737827714,0.3037542662116041,2838.0,8020.0,5.0,3.0,1.0,1.0,0.0,2.0,,1.0,0.0003740648379052369,0.00012468827930174563,0.0,0.3333333333333333,0.3333333333333333,0.0,1.0,1.0,1.0,1.0,1.0
80,2929.0,8020.0,5.476271765107545,0.0018703113951870028,0.0016961748810843922,0.8701868195405915,-0.1151083205509429,0.0,3.0,-0.1151083205509429,10.087079947264769,8.631541834988868,0.0009336707914089699,294.0,267.0,4.595238095238095,0.14232209737827714,0.3037542662116041,2838.0,8020.0,5.0,3.0,1.0,1.0,0.0,2.0,,1.0,0.0003740648379052369,0.00012468827930174563,0.0,0.3333333333333333,0.3333333333333333,0.0,1.0,1.0,1.0,1.0,1.0
81,2929.0,8020.0,5.476271765107545,0.0018703113951870028,0.0016961748810843922,0.8701868195405915,-0.1151083205509429,0.0,3.0,-0.1151083205509429,10.087079947264769,8.631541834988868,0.0009336707914089699,294.0,267.0,4.595238095238095,0.14232209737827714,0.3037542662116041,2838.0,8020.0,5.0,3.0,1.0,1.0,0.0,2.0,,1.0,0.0003740648379052369,0.00012468827930174563,0.0,0.3333333333333333,0.3333333333333333,0.0,1.0,1.0,1.0,1.0,1.0
82,2929.0,8020.0,5.476271765107545,0.0018703113951870028,0.0016961748810843922,0.8701868195405915,-0.1151083205509429,0.0,3.0,-0.1151083205509429,10.087079947264769,8.631541834988868,0.0009336707914089699,294.0,267.0,4.595238095238095,0.14232209737827714,0.3037542662116041,2838.0,8020.0,5.0,3.0,1.0,1.0,0.0,2.0,,1.0,0.0003740648379052369,0.00012468827930174563,0.0,0.3333333333333333,0.3333333333333333,0.0,1.0,1.0,1.0,1.0,1.0
83,2929.0,8020.0,5.476271765107545,0.0018703113951870028,0.0016961748810843922,0.8701868195405915,-0.1151083205509429,0.0,3.0,-0.1151083205509429,10.087079947264769,8.631541834988868,0.0009336707914089699,294.0,267.0,4.595238095238095,0.14232209737827714,0.3037542662116041,2838.0,8020.0,5.0,3.0,1.0,1.0,0.0,2.0,,1.0,0.0003740648379052369,0.00012468827930174563,0.0,0.3333333333333333,0.3333333333333333,0.0,1.0,1.0,1.0,1.0,1.0
84,2929.0,8020.0,5.476271765107545,0.0018703113951870028,0.0016961748810843922,0.8701868195405915,-0.1151083205509429,0.0,3.0,-0.1151083205509429,10.087079947264769,8.631541834988868,0.0009336707914089699,294.0,267.0,4.595238095238095,0.14232209737827714,0.3037542662116041,2838.0,8020.0,5.0,3.0,1.0,1.0,0.0,2.0,,1.0,0.0003740648379052369,0.00012468827930174563,0.0,0.3333333333333333,0.3333333333333333,0.0,1.0,1.0,1.0,1.0,1.0
85,2929.0,8020.0,5.476271765107545,0.0018703113951870028,0.0016961748810843922,0.8701868195405915,-0.1151083205509429,0.0,3.0,-0.1151083205509429,10.087079947264769,8.631541834988868,0.0009336707914089699,294.0,267.0,4.595238095238095,0.14232209737827714,0.3037542662116041,2838.0,8020.0,5.0,3.0,1.0,1.0,0.0,2.0,,1.0,0.0003740648379052369,0.00012468827930174563,0.0,0.3333333333333333,0.3333333333333333,0.0,1.0,1.0,1.0,1.0,1.0
86,2929.0,8020.0,5.476271765107545,0.0018703113951870028,0.0016961748810843922,0.8701868195405915,-0.1151083205509429,0.0,3.0,-0.1151083205509429,10.087079947264769,8.631541834988868,0.0009336707914089699,294.0,267.0,4.595238095238095,0.14232209737827714,0.3037542662116041,2838.0,8020.0,5.0,3.0,1.0,1.0,0.0,2.0,,1.0,0.0003740648379052369,0.00012468827930174563,0.0,0.3333333333333333,0.3333333333333333,0.0,1.0,1.0,1.0,1.0,1.0
87,2929.0,8020.0,5.476271765107545,0.0018703113951870028,0.0016961748810843922,0.8701868195405915,-0.1151083205509429,0.0,3.0,-0.1151083205509429,10.087079947264769,8.631541834988868,0.0009336707914089699,294.0,267.0,4.595238095238095,0.14232209737827714,0.3037542662116041,2838.0,8020.0,5.0,3.0,1.0,1.0,0.0,2.0,,1.0,0.0003740648379052369,0.00012468827930174563,0.0,0.3333333333333333,0.3333333333333333,0.0,1.0,1.0,1.0,1.0,1.0
88,2929.0,8020.0,5.476271765107545,0.0018703113951870028,0.0016961748810843922,0.8701868195405915,-0.1151083205509429,0.0,3.0,-0.1151083205509429,10.087079947264769,8.631541834988868,0.0009336707914089699,294.0,267.0,4.595238095238095,0.14232209737827714,0.3037542662116041,2838.0,8020.0,5.0,3.0,1.0,1.0,0.0,2.0,,1.0,0.0003740648379052369,0.00012468827930174563,0.0,0.3333333333333333,0.3333333333333333,0.0,1.0,1.0,1.0,1.0,1.0
89,2929.0,8020.0,5.476271765107545,0.0018703113951870028,0.0016961748810843922,0.8701868195405915,-0.1151083205509429,0.0,3.0,-0.1151083205509429,10.087079947264769,8.631541834988868,0.0009336707914089699,294.0,267.0,4.595238095238095,0.14232209737827714,0.3037542662116041,2838.0,8020.0,5.0,3.0,1.0,1.0,0.0,2.0,,1.0,0.0003740648379052369,0.00012468827930174563,0.0,0.3333333333333333,0.3333333333333333,0.0,1.0,1.0,1.0,1.0,1.0
90,2929.0,8020.0,5.476271765107545,0.0018703113951870028,0.0016961748810843922,0.8701868195405915,-0.1151083205509429,0.0,3.0,-0.1151083205509429,10.087079947264769,8.631541834988868,0.0009336707914089699,294.0,267.0,4.595238095238095,0.14232209737827714,0.3037542662116041,2838.0,8020.0,5.0,3.0,1.0,1.0,0.0,2.0,,1.0,0.0003740648379052369,0.00012468827930174563,0.0,0.3333333333333333,0.3333333333333333,0.0,1.0,1.0,1.0,1.0,1.0
91,2929.0,8020.0,5.476271765107545,0.0018703113951870028,0.0016961748810843922,0.8701868195405915,-0.1151083205509429,0.0,3.0,-0.1151083205509429,10.087079947264769,8.631541834988868,0.0009336707914089699,294.0,267.0,4.595238095238095,0.14232209737827714,0.3037542662116041,2838.0,8020.0,5.0,3.0,1.0,1.0,0.0,2.0,,1.0,0.0003740648379052369,0.00012468827930174563,0.0,0.3333333333333333,0.3333333333333333,0.0,1.0,1.0,1.0,1.0,1.0
92,2929.0,8020.0,5.476271765107545,0.0018703113951870028,0.0016961748810843922,0.8701868195405915,-0.1151083205509429,0.0,3.0,-0.1151083205509429,10.087079947264769,8.631541834988868,0.0009336707914089699,294.0,267.0,4.595238095238095,0.14232209737827714,0.3037542662116041,2838.0,8020.0,5.0,3.0,1.0,1.0,0.0,2.0,,1.0,0.0003740648379052369,0.00012468827930174563,0.0,0.3333333333333333,0.3333333333333333,0.0,1.0,1.0,1.0,1.0,1.0
93,2929.0,8020.0,5.476271765107545,0.0018703113951870028,0.0016961748810843922,0.8701868195405915,-0.1151083205509429,0.0,3.0,-0.1151083205509429,10.087079947264769,8.631541834988868,0.0009336707914089699,294.0,267.0,4.595238095238095,0.14232209737827714,0.3037542662116041,2838.0,8020.0,5.0,3.0,1.0,1.0,0.0,2.0,,1.0,0.0003740648379052369,0.00012468827930174563,0.0,0.3333333333333333,0.3333333333333333,0.0,1.0,1.0,1.0,1.0,1.0
94,2929.0,8020.0,5.476271765107545,0.0018703113951870028,0.0016961748810843922,0.8701868195405915,-0.1151083205509429,0.0,3.0,-0.1151083205509429,10.087079947264769,8.631541834988868,0.0009336707914089699,294.0,267.0,4.595238095238095,0.14232209737827714,0.3037542662116041,2838.0,8020.0,5.0,3.0,1.0,1.0,0.0,2.0,,1.0,0.0003740648379052369,0.00012468827930174563,0.0,0.3333333333333333,0.3333333333333333,0.0,1.0,1.0,1.0,1.0,1.0
95,2929.0,8020.0,5.476271765107545,0.0018703113951870028,0.0016961748810843922,0.8701868195405915,-0.1151083205509429,0.0,3.0,-0.1151083205509429,10.087079947264769,8.631541834988868,0.0009336707914089699,294.0,267.0,4.595238095238095,0.14232209737827714,0.3037542662116041,2838.0,8020.0,5.0,3.0,1.0,1.0,0.0,2.0,,1.0,0.0003740648379052369,0.00012468827930174563,0.0,0.3333333333333333,0.3333333333333333,0.0,1.0,1.0,1.0,1.0,1.0
96,2929.0,8020.0,5.476271765107545,0.0018703113951870028,0.0016961748810843922,0.8701868195405915,-0.1151083205509429,0.0,3.0,-0.1151083205509429,10.087079947264769,8.631541834988868,0.0009336707914089699,294.0,267.0,4.595238095238095,0.14232209737827714,0.3037542662116041,2838.0,8020.0,5.0,3.0,1.0,1.0,0.0,2.0,,1.0,0.0003740648379052369,0.00012468827930174563,0.0,0.3333333333333333,0.3333333333333333,0.0,1.0,1.0,1.0,1.0,1.0
97,2929.0,8020.0,5.476271765107545,0.0018703113951870028,0.0016961748810843922,0.8701868195405915,-0.1151083205509429,0.0,3.0,-0.1151083205509429,10.087079947264769,8.631541834988868,0.0009336707914089699,294.0,267.0,4.595238095238095,0.14232209737827714,0.3037542662116041,2838.0,8020.0,5.0,3.0,1.0,1.0,0.0,2.0,,1.0,0.0003740648379052369,0.00012468827930174563,0.0,0.3333333333333333,0.3333333333333333,0.0,1.0,1.0,1.0,1.0,1.0
98,2929.0,8020.0,5.476271765107545,0.0018703113951870028,0.0016961748810843922,0.8701868195405915,-0.1151083205509429,0.0,3.0,-0.1151083205509429,10.087079947264769,8.631541834988868,0.0009336707914089699,294.0,267.0,4.595238095238095,0.14232209737827714,0.3037542662116041,2838.0,8020.0,5.0,3.0,1.0,1.0,0.0,2.0,,1.0,0.0003740648379052369,0.00012468827930174563,0.0,0.3333333333333333,0.3333333333333333,0.0,1.0,1.0,1.0,1.0,1.0
99,2929.0,8020.0,5.476271765107545,0.0018703113951870028,0.0016961748810843922,0.8701868195405915,-0.1151083205509429,0.0,3.0,-0.1151083205509429,10.087079947264769,8.631541834988868,0.0009336707914089699,294.0,267.0,4.595238095238095,0.14232209737827714,0.3037542662116041,2838.0,8020.0,5.0,3.0,1.0,1.0,0.0,2.0,,1.0,0.0003740648379052369,0.00012468827930174563,0.0,0.3333333333333333,0.3333333333333333,0.0,1.0,1.0,1.0,1.0,1.0
100,2929.0,8020.0,5.476271765107545,0.0018703113951870028,0.0016961748810843922,0.8701868195405915,-0.1151083205509429,0.0,3.0,-0.1151083205509429,10.087079947264769,8.631541834988868,0.0009336707914089699,294.0,267.0,4.595238095238095,0.14232209737827714,0.3037542662116041,2838.0,8020.0,5.0,3.0,1.0,1.0,0.0,2.0,,1.0,0.0003740648379052369,0.00012468827930174563,0.0,0.3333333333333333,0.3333333333333333,0.0,1.0,1.0,1.0,1.0,1.0
101,2929.0,8020.0,5.476271765107545,0.0018703113951870028,0.0016961748810843922,0.8701868195405915,-0.1151083205509429,0.0,3.0,-0.1151083205509429,10.087079947264769,8.631541834988868,0.0009336707914089699,294.0,267.0,4.595238095238095,0.14232209737827714,0.3037542662116041,2838.0,8020.0,5.0,3.0,1.0,1.0,0.0,2.0,,1.0,0.0003740648379052369,0.00012468827930174563,0.0,0.3333333333333333,0.3333333333333333,0.0,1.0,1.0,1.0,1.0,1.0
102,2929.0,8020.0,5.476271765107545,0.0018703113951870028,0.0016961748810843922,0.8701868195405915,-0.1151083205509429,0.0,3.0,-0.1151083205509429,10.087079947264769,8.631541834988868,0.0009336707914089699,294.0,267.0,4.595238095238095,0.14232209737827714,0.3037542662116041,2838.0,8020.0,5.0,3.0,1.0,1.0,0.0,2.0,,1.0,0.0003740648379052369,0.00012468827930174563,0.0,0.3333333333333333,0.3333333333333333,0.0,1.0,1.0,1.0,1.0,1.0
103,2929.0,8020.0,5.476271765107545,0.0018703113951870028,0.0016961748810843922,0.8701868195405915,-0.1151083205509429,0.0,3.0,-0.1151083205509429,10.087079947264769,8.631541834988868,0.0009336707914089699,294.0,267.0,4.595238095238095,0.14232209737827714,0.3037542662116041,2838.0,8020.0,5.0,3.0,1.0,1.0,0.0,2.0,,1.0,0.0003740648379052369,0.00012468827930174563,0.0,0.3333333333333333,0.3333333333333333,0.0,1.0,1.0,1.0,1.0,1.0
104,2929.0,8020.0,5.476271765107545,0.0018703113951870028,0.0016961748810843922,0.8701868195405915,-0.1151083205509429,0.0,3.0,-0.1151083205509429,10.087079947264769,8.631541834988868,0.0009336707914089699,294.0,267.0,4.595238095238095,0.14232209737827714,0.3037542662116041,2838.0,8020.0,5.0,3.0,1.0,1.0,0.0,2.0,,1.0,0.0003740648379052369,0.00012468827930174563,0.0,0.3333333333333333,0.3333333333333333,0.0,1.0,1.0,1.0,1.0,1.0
105,2929.0,8020.0,5.476271765107545,0.0018703113951870028,0.0016961748810843922,0.8701868195405915,-0.1151083205509429,0.0,3.0,-0.1151083205509429,10.087079947264769,8.631541834988868,0.0009336707914089699,294.0,267.0,4.595238095238095,0.14232209737827714,0.3037542662116041,2838.0,8020.0,5.0,3.0,1.0,1.0,0.0,2.0,,1.0,0.0003740648379052369,0.00012468827930174563,0.0,0.3333333333333333,0.3333333333333333,0.0,1.0,1.0,1.0,1.0,1.0
106,2929.0,8020.0,5.476271765107545,0.0018703113951870028,0.0016961748810843922,0.8701868195405915,-0.1151083205509429,0.0,3.0,-0.1151083205509429,10.087079947264769,8.631541834988868,0.0009336707914089699,294.0,267.0,4.595238095238095,0.14232209737827714,0.3037542662116041,2838.0,8020.0,5.0,3.0,1.0,1.0,0.0,2.0,,1.0,0.0003740648379052369,0.00012468827930174563,0.0,0.3333333333333333,0.3333333333333333,0.0,1.0,1.0,1.0,1.0,1.0
107,2929.0,8020.0,5.476271765107545,0.0018703113951870028,0.0016961748810843922,0.8701868195405915,-0.1151083205509429,0.0,3.0,-0.1151083205509429,10.087079947264769,8.631541834988868,0.0009336707914089699,294.0,267.0,4.595238095238095,0.14232209737827714,0.3037542662116041,2838.0,8020.0,5.0,3.0,1.0,1.0,0.0,2.0,,1.0,0.0003740648379052369,0.00012468827930174563,0.0,0.3333333333333333,0.3333333333333333,0.0,1.0,1.0,1.0,1.0,1.0
108,2929.0,8020.0,5.476271765107545,0.0018703113951870028,0.0016961748810843922,0.8701868195405915,-0.1151083205509429,0.0,3.0,-0.1151083205509429,10.087079947264769,8.631541834988868,0.0009336707914089699,294.0,267.0,4.595238095238095,0.14232209737827714,0.3037542662116041,2838.0,8020.0,5.0,3.0,1.0,1.0,0.0,2.0,,1.0,0.0003740648379052369,0.00012468827930174563,0.0,0.3333333333333333,0.3333333333333333,0.0,1.0,1.0,1.0,1.0,1.0
109,2929.0,8020.0,5.476271765107545,0.0018703113951870028,0.0016961748810843922,0.8701868195405915,-0.1151083205509429,0.0,3.0,-0.1151083205509429,10.087079947264769,8.631541834988868,0.0009336707914089699,294.0,267.0,4.595238095238095,0.14232209737827714,0.3037542662116041,2838.0,8020.0,5.0,3.0,1.0,1.0,0.0,2.0,,1.0,0.0003740648379052369,0.00012468827930174563,0.0,0.3333333333333333,0.3333333333333333,0.0,1.0,1.0,1.0,1.0,1.0
110,2929.0,8020.0,5.476271765107545,0.0018703113951870028,0.0016961748810843922,0.8701868195405915,-0.1151083205509429,0.0,3.0,-0.1151083205509429,10.087079947264769,8.631541834988868,0.0009336707914089699,294.0,267.0,4.595238095238095,0.14232209737827714,0.3037542662116041,2838.0,8020.0,5.0,3.0,1.0,1.0,0.0,2.0,,1.0,0.0003740648379052369,0.00012468827930174563,0.0,0.3333333333333333,0.3333333333333333,0.0,1.0,1.0,1.0,1.0,1.0
111,2929.0,8020.0,5.476271765107545,0.0018703113951870028,0.0016961748810843922,0.8701868195405915,-0.1151083205509429,0.0,3.0,-0.1151083205509429,10.087079947264769,8.631541834988868,0.0009336707914089699,294.0,267.0,4.595238095238095,0.14232209737827714,0.3037542662116041,2838.0,8020.0,5.0,3.0,1.0,1.0,0.0,2.0,,1.0,0.0003740648379052369,0.00012468827930174563,0.0,0.3333333333333333,0.3333333333333333,0.0,1.0,1.0,1.0,1.0,1.0
112,2929.0,8020.0,5.476271765107545,0.0018703113951870028,0.0016961748810843922,0.8701868195405915,-0.1151083205509429,0.0,3.0,-0.1151083205509429,10.087079947264769,8.631541834988868,0.0009336707914089699,294.0,267.0,4.595238095238095,0.14232209737827714,0.3037542662116041,2838.0,8020.0,5.0,3.0,1.0,1.0,0.0,2.0,,1.0,0.0003740648379052369,0.00012468827930174563,0.0,0.3333333333333333,0.3333333333333333,0.0,1.0,1.0,1.0,1.0,1.0
113,2929.0,8020.0,5.476271765107545,0.0018703113951870028,0.0016961748810843922,0.8701868195405915,-0.1151083205509429,0.0,3.0,-0.1151083205509429,10.087079947264769,8.631541834988868,0.0009336707914089699,294.0,267.0,4.595238095238095,0.14232209737827714,0.3037542662116041,2838.0,8020.0,5.0,3.0,1.0,1.0,0.0,2.0,,1.0,0.0003740648379052369,0.00012468827930174563,0.0,0.3333333333333333,0.3333333333333333,0.0,1.0,1.0,1.0,1.0,1.0
114,2929.0,8020.0,5.476271765107545,0.0018703113951870028,0.0016961748810843922,0.8701868195405915,-0.1151083205509429,0.0,3.0,-0.1151083205509429,10.087079947264769,8.631541834988868,0.0009336707914089699,294.0,267.0,4.595238095238095,0.14232209737827714,0.3037542662116041,2838.0,8020.0,5.0,3.0,1.0,1.0,0.0,2.0,,1.0,0.0003740648379052369,0.00012468827930174563,0.0,0.3333333333333333,0.3333333333333333,0.0,1.0,1.0,1.0,1.0,1.0
115,2929.0,8020.0,5.476271765107545,0.0018703113951870028,0.0016961748810843922,0.8701868195405915,-0.1151083205509429,0.0,3.0,-0.1151083205509429,10.087079947264769,8.631541834988868,0.0009336707914089699,294.0,267.0,4.595238095238095,0.14232209737827714,0.3037542662116041,2838.0,8020.0,5.0,3.0,1.0,1.0,0.0,2.0,,1.0,0.0003740648379052369,0.00012468827930174563,0.0,0.3333333333333333,0.3333333333333333,0.0,1.0,1.0,1.0,1.0,1.0
116,2929.0,8020.0,5.476271765107545,0.0018703113951870028,0.0016961748810843922,0.8701868195405915,-0.1151083205509429,0.0,3.0,-0.1151083205509429,10.087079947264769,8.631541834988868,0.0009336707914089699,294.0,267.0,4.595238095238095,0.14232209737827714,0.3037542662116041,2838.0,8020.0,5.0,3.0,1.0,1.0,0.0,2.0,,1.0,0.0003740648379052369,0.00012468827930174563,0.0,0.3333333333333333,0.3333333333333333,0.0,1.0,1.0,1.0,1.0,1.0
117,2929.0,8020.0,5.476271765107545,0.0018703113951870028,0.0016961748810843922,0.8701868195405915,-0.1151083205509429,0.0,3.0,-0.1151083205509429,10.087079947264769,8.631541834988868,0.0009336707914089699,294.0,267.0,4.595238095238095,0.14232209737827714,0.3037542662116041,2838.0,8020.0,5.0,3.0,1.0,1.0,0.0,2.0,,1.0,0.0003740648379052369,0.00012468827930174563,0.0,0.3333333333333333,0.3333333333333333,0.0,1.0,1.0,1.0,1.0,1.0
118,2929.0,8020.0,5.476271765107545,0.0018703113951870028,0.0016961748810843922,0.8701868195405915,-0.1151083205509429,0.0,3.0,-0.1151083205509429,10.087079947264769,8.631541834988868,0.0009336707914089699,294.0,267.0,4.595238095238095,0.14232209737827714,0.3037542662116041,2838.0,8020.0,5.0,3.0,1.0,1.0,0.0,2.0,,1.0,0.0003740648379052369,0.00012468827930174563,0.0,0.3333333333333333,0.3333333333333333,0.0,1.0,1.0,1.0,1.0,1.0
119,2929.0,8020.0,5.476271765107545,0.0018703113951870028,0.0016961748810843922,0.8701868195405915,-0.1151083205509429,0.0,3.0,-0.1151083205509429,10.087079947264769,8.631541834988868,0.0009336707914089699,294.0,267.0,4.595238095238095,0.14232209737827714,0.3037542662116041,2838.0,8020.0,5.0,3.0,1.0,1.0,0.0,2.0,,1.0,0.0003740648379052369,0.00012468827930174563,0.0,0.3333333333333333,0.3333333333333333,0.0,1.0,1.0,1.0,1.0,1.0
120,2929.0,8020.0,5.476271765107545,0.0018703113951870028,0.0016961748810843922,0.8701868195405915,-0.1151083205509429,0.0,3.0,-0.1151083205509429,10.087079947264769,8.631541834988868,0.0009336707914089699,294.0,267.0,4.595238095238095,0.14232209737827714,0.3037542662116041,2838.0,8020.0,5.0,3.0,1.0,1.0,0.0,2.0,,1.0,0.0003740648379052369,0.00012468827930174563,0.0,0.3333333333333333,0.3333333333333333,0.0,1.0,1.0,1.0,1.0,1.0
121,2929.0,8020.0,5.476271765107545,0.0018703113951870028,0.0016961748810843922,0.8701868195405915,-0.1151083205509429,0.0,3.0,-0.1151083205509429,10.087079947264769,8.631541834988868,0.0009336707914089699,294.0,267.0,4.595238095238095,0.14232209737827714,0.3037542662116041,2838.0,8020.0,5.0,3.0,1.0,1.0,0.0,2.0,,1.0,0.0003740648379052369,0.00012468827930174563,0.0,0.3333333333333333,0.3333333333333333,0.0,1.0,1.0,1.0,1.0,1.0
122,2929.0,8020.0,5.476271765107545,0.0018703113951870028,0.0016961748810843922,0.8701868195405915,-0.1151083205509429,0.0,3.0,-0.1151083205509429,10.087079947264769,8.631541834988868,0.0009336707914089699,294.0,267.0,4.595238095238095,0.14232209737827714,0.3037542662116041,2838.0,8020.0,5.0,3.0,1.0,1.0,0.0,2.0,,1.0,0.0003740648379052369,0.00012468827930174563,0.0,0.3333333333333333,0.3333333333333333,0.0,1.0,1.0,1.0,1.0,1.0
123,2929.0,8020.0,5.476271765107545,0.0018703113951870028,0.0016961748810843922,0.8701868195405915,-0.1151083205509429,0.0,3.0,-0.1151083205509429,10.087079947264769,8.631541834988868,0.0009336707914089699,294.0,267.0,4.595238095238095,0.14232209737827714,0.3037542662116041,2838.0,8020.0,5.0,3.0,1.0,1.0,0.0,2.0,,1.0,0.0003740648379052369,0.00012468827930174563,0.0,0.3333333333333333,0.3333333333333333,0.0,1.0,1.0,1.0,1.0,1.0
124,2929.0,8020.0,5.476271765107545,0.0018703113951870028,0.0016961748810843922,0.8701868195405915,-0.1151083205509429,0.0,3.0,-0.1151083205509429,10.087079947264769,8.631541834988868,0.0009336707914089699,294.0,267.0,4.595238095238095,0.14232209737827714,0.3037542662116041,2838.0,8020.0,5.0,3.0,1.0,1.0,0.0,2.0,,1.0,0.0003740648379052369,0.00012468827930174563,0.0,0.3333333333333333,0.3333333333333333,0.0,1.0,1.0,1.0,1.0,1.0
125,2929.0,8020.0,5.476271765107545,0.0018703113951870028,0.0016961748810843922,0.8701868195405915,-0.1151083205509429,0.0,3.0,-0.1151083205509429,10.087079947264769,8.631541834988868,0.0009336707914089699,294.0,267.0,4.595238095238095,0.14232209737827714,0.3037542662116041,2838.0,8020.0,5.0,3.0,1.0,1.0,0.0,2.0,,1.0,0.0003740648379052369,0.00012468827930174563,0.0,0.3333333333333333,0.3333333333333333,0.0,1.0,1.0,1.0,1.0,1.0
126,2929.0,8020.0,5.476271765107545,0.0018703113951870028,0.0016961748810843922,0.8701868195405915,-0.1151083205509429,0.0,3.0,-0.1151083205509429,10.087079947264769,8.631541834988868,0.0009336707914089699,294.0,267.0,4.595238095238095,0.14232209737827714,0.3037542662116041,2838.0,8020.0,5.0,3.0,1.0,1.0,0.0,2.0,,1.0,0.0003740648379052369,0.00012468827930174563,0.0,0.3333333333333333,0.3333333333333333,0.0,1.0,1.0,1.0,1.0,1.0
127,2929.0,8020.0,5.476271765107545,0.0018703113951870028,0.0016961748810843922,0.8701868195405915,-0.1151083205509429,0.0,3.0,-0.1151083205509429,10.087079947264769,8.631541834988868,0.0009336707914089699,294.0,267.0,4.595238095238095,0.14232209737827714,0.3037542662116041,2838.0,8020.0,5.0,3.0,1.0,1.0,0.0,2.0,,1.0,0.0003740648379052369,0.00012468827930174563,0.0,0.3333333333333333,0.3333333333333333,0.0,1.0,1.0,1.0,1.0,1.0
128,2929.0,8020.0,5.476271765107545,0.0018703113951870028,0.0016961748810843922,0.8701868195405915,-0.1151083205509429,0.0,3.0,-0.1151083205509429,10.087079947264769,8.631541834988868,0.0009336707914089699,294.0,267.0,4.595238095238095,0.14232209737827714,0.3037542662116041,2838.0,8020.0,5.0,3.0,1.0,1.0,0.0,2.0,,1.0,0.0003740648379052369,0.00012468827930174563,0.0,0.3333333333333333,0.3333333333333333,0.0,1.0,1.0,1.0,1.0,1.0
129,2929.0,8020.0,5.476271765107545,0.0018703113951870028,0.0016961748810843922,0.8701868195405915,-0.1151083205509429,0.0,3.0,-0.1151083205509429,10.087079947264769,8.631541834988868,0.0009336707914089699,294.0,267.0,4.595238095238095,0.14232209737827714,0.3037542662116041,2838.0,8020.0,5.0,3.0,1.0,1.0,0.0,2.0,,1.0,0.0003740648379052369,0.00012468827930174563,0.0,0.3333333333333333,0.3333333333333333,0.0,1.0,1.0,1.0,1.0,1.0
130,2929.0,8020.0,5.476271765107545,0.0018703113951870028,0.0016961748810843922,0.8701868195405915,-0.1151083205509429,0.0,3.0,-0.1151083205509429,10.087079947264769,8.631541834988868,0.0009336707914089699,294.0,267.0,4.595238095238095,0.14232209737827714,0.3037542662116041,2838.0,8020.0,5.0,3.0,1.0,1.0,0.0,2.0,,1.0,0.0003740648379052369,0.00012468827930174563,0.0,0.3333333333333333,0.3333333333333333,0.0,1.0,1.0,1.0,1.0,1.0
131,2929.0,8020.0,5.476271765107545,0.0018703113951870028,0.0016961748810843922,0.8701868195405915,-0.1151083205509429,0.0,3.0,-0.1151083205509429,10.087079947264769,8.631541834988868,0.0009336707914089699,294.0,267.0,4.595238095238095,0.14232209737827714,0.3037542662116041,2838.0,8020.0,5.0,3.0,1.0,1.0,0.0,2.0,,1.0,0.0003740648379052369,0.00012468827930174563,0.0,0.3333333333333333,0.3333333333333333,0.0,1.0,1.0,1.0,1.0,1.0
132,2929.0,8020.0,5.476271765107545,0.0018703113951870028,0.0016961748810843922,0.8701868195405915,-0.1151083205509429,0.0,3.0,-0.1151083205509429,10.087079947264769,8.631541834988868,0.0009336707914089699,294.0,267.0,4.595238095238095,0.14232209737827714,0.3037542662116041,2838.0,8020.0,5.0,3.0,1.0,1.0,0.0,2.0,,1.0,0.0003740648379052369,0.00012468827930174563,0.0,0.3333333333333333,0.3333333333333333,0.0,1.0,1.0,1.0,1.0,1.0
133,2929.0,8020.0,5.476271765107545,0.0018703113951870028,0.0016961748810843922,0.8701868195405915,-0.1151083205509429,0.0,3.0,-0.1151083205509429,10.087079947264769,8.631541834988868,0.0009336707914089699,294.0,267.0,4.595238095238095,0.14232209737827714,0.3037542662116041,2838.0,8020.0,5.0,3.0,1.0,1.0,0.0,2.0,,1.0,0.0003740648379052369,0.00012468827930174563,0.0,0.3333333333333333,0.3333333333333333,0.0,1.0,1.0,1.0,1.0,1.0
134,2929.0,8020.0,5.476271765107545,0.0018703113951870028,0.0016961748810843922,0.8701868195405915,-0.1151083205509429,0.0,3.0,-0.1151083205509429,10.087079947264769,8.631541834988868,0.0009336707914089699,294.0,267.0,4.595238095238095,0.14232209737827714,0.3037542662116041,2838.0,8020.0,5.0,3.0,1.0,1.0,0.0,2.0,,1.0,0.0003740648379052369,0.00012468827930174563,0.0,0.3333333333333333,0.3333333333333333,0.0,1.0,1.0,1.0,1.0,1.0
135,2929.0,8020.0,5.476271765107545,0.0018703113951870028,0.0016961748810843922,0.8701868195405915,-0.1151083205509429,0.0,3.0,-0.1151083205509429,10.087079947264769,8.631541834988868,0.0009336707914089699,294.0,267.0,4.595238095238095,0.14232209737827714,0.3037542662116041,2838.0,8020.0,5.0,3.0,1.0,1.0,0.0,2.0,,1.0,0.0003740648379052369,0.00012468827930174563,0.0,0.3333333333333333,0.3333333333333333,0.0,1.0,1.0,1.0,1.0,1.0
136,2929.0,8020.0,5.476271765107545,0.0018703113951870028,0.0016961748810843922,0.8701868195405915,-0.1151083205509429,0.0,3.0,-0.1151083205509429,10.087079947264769,8.631541834988868,0.0009336707914089699,294.0,267.0,4.595238095238095,0.14232209737827714,0.3037542662116041,2838.0,8020.0,5.0,3.0,1.0,1.0,0.0,2.0,,1.0,0.0003740648379052369,0.00012468827930174563,0.0,0.3333333333333333,0.3333333333333333,0.0,1.0,1.0,1.0,1.0,1.0
137,2929.0,8020.0,5.476271765107545,0.0018703113951870028,0.0016961748810843922,0.8701868195405915,-0.1151083205509429,0.0,3.0,-0.1151083205509429,10.087079947264769,8.631541834988868,0.0009336707914089699,294.0,267.0,4.595238095238095,0.14232209737827714,0.3037542662116041,2838.0,8020.0,5.0,3.0,1.0,1.0,0.0,2.0,,1.0,0.0003740648379052369,0.00012468827930174563,0.0,0.3333333333333333,0.3333333333333333,0.0,1.0,1.0,1.0,1.0,1.0
138,2929.0,8020.0,5.476271765107545,0.0018703113951870028,0.0016961748810843922,0.8701868195405915,-0.1151083205509429,0.0,3.0,-0.1151083205509429,10.087079947264769,8.631541834988868,0.0009336707914089699,294.0,267.0,4.595238095238095,0.14232209737827714,0.3037542662116041,2838.0,8020.0,5.0,3.0,1.0,1.0,0.0,2.0,,1.0,0.0003740648379052369,0.00012468827930174563,0.0,0.3333333333333333,0.3333333333333333,0.0,1.0,1.0,1.0,1.0,1.0
139,2929.0,8020.0,5.476271765107545,0.0018703113951870028,0.0016961748810843922,0.8701868195405915,-0.1151083205509429,0.0,3.0,-0.1151083205509429,10.087079947264769,8.631541834988868,0.0009336707914089699,294.0,267.0,4.595238095238095,0.14232209737827714,0.3037542662116041,2838.0,8020.0,5.0,3.0,1.0,1.0,0.0,2.0,,1.0,0.0003740648379052369,0.00012468827930174563,0.0,0.3333333333333333,0.3333333333333333,0.0,1.0,1.0,1.0,1.0,1.0
140,2929.0,8020.0,5.476271765107545,0.0018703113951870028,0.0016961748810843922,0.8701868195405915,-0.1151083205509429,0.0,3.0,-0.1151083205509429,10.087079947264769,8.631541834988868,0.0009336707914089699,294.0,267.0,4.595238095238095,0.14232209737827714,0.3037542662116041,2838.0,8020.0,5.0,3.0,1.0,1.0,0.0,2.0,,1.0,0.0003740648379052369,0.00012468827930174563,0.0,0.3333333333333333,0.3333333333333333,0.0,1.0,1.0,1.0,1.0,1.0
141,2929.0,8020.0,5.476271765107545,0.0018703113951870028,0.0016961748810843922,0.8701868195405915,-0.1151083205509429,0.0,3.0,-0.1151083205509429,10.087079947264769,8.631541834988868,0.0009336707914089699,294.0,267.0,4.595238095238095,0.14232209737827714,0.3037542662116041,2838.0,8020.0,5.0,3.0,1.0,1.0,0.0,2.0,,1.0,0.0003740648379052369,0.00012468827930174563,0.0,0.3333333333333333,0.3333333333333333,0.0,1.0,1.0,1.0,1.0,1.0
142,2929.0,8020.0,5.476271765107545,0.0018703113951870028,0.0016961748810843922,0.8701868195405915,-0.1151083205509429,0.0,3.0,-0.1151083205509429,10.087079947264769,8.631541834988868,0.0009336707914089699,294.0,267.0,4.595238095238095,0.14232209737827714,0.3037542662116041,2838.0,8020.0,5.0,3.0,1.0,1.0,0.0,2.0,,1.0,0.0003740648379052369,0.00012468827930174563,0.0,0.3333333333333333,0.3333333333333333,0.0,1.0,1.0,1.0,1.0,1.0
143,2929.0,8020.0,5.476271765107545,0.0018703113951870028,0.0016961748810843922,0.8701868195405915,-0.1151083205509429,0.0,3.0,-0.1151083205509429,10.087079947264769,8.631541834988868,0.0009336707914089699,294.0,267.0,4.595238095238095,0.14232209737827714,0.3037542662116041,2838.0,8020.0,5.0,3.0,1.0,1.0,0.0,2.0,,1.0,0.0003740648379052369,0.00012468827930174563,0.0,0.3333333333333333,0.3333333333333333,0.0,1.0,1.0,1.0,1.0,1.0
144,2929.0,8020.0,5.476271765107545,0.0018703113951870028,0.0016961748810843922,0.8701868195405915,-0.1151083205509429,0.0,3.0,-0.1151083205509429,10.087079947264769,8.631541834988868,0.0009336707914089699,294.0,267.0,4.595238095238095,0.14232209737827714,0.3037542662116041,2838.0,8020.0,5.0,3.0,1.0,1.0,0.0,2.0,,1.0,0.0003740648379052369,0.00012468827930174563,0.0,0.3333333333333333,0.3333333333333333,0.0,1.0,1.0,1.0,1.0,1.0
145,2929.0,8020.0,5.476271765107545,0.0018703113951870028,0.0016961748810843922,0.8701868195405915,-0.1151083205509429,0.0,3.0,-0.1151083205509429,10.087079947264769,8.631541834988868,0.0009336707914089699,294.0,267.0,4.595238095238095,0.14232209737827714,0.3037542662116041,2838.0,8020.0,5.0,3.0,1.0,1.0,0.0,2.0,,1.0,0.0003740648379052369,0.00012468827930174563,0.0,0.3333333333333333,0.3333333333333333,0.0,1.0,1.0,1.0,1.0,1.0
146,2929.0,8020.0,5.476271765107545,0.0018703113951870028,0.0016961748810843922,0.8701868195405915,-0.1151083205509429,0.0,3.0,-0.1151083205509429,10.087079947264769,8.631541834988868,0.0009336707914089699,294.0,267.0,4.595238095238095,0.14232209737827714,0.3037542662116041,2838.0,8020.0,5.0,3.0,1.0,1.0,0.0,2.0,,1.0,0.0003740648379052369,0.00012468827930174563,0.0,0.3333333333333333,0.3333333333333333,0.0,1.0,1.0,1.0,1.0,1.0
147,2929.0,8020.0,5.476271765107545,0.0018703113951870028,0.0016961748810843922,0.8701868195405915,-0.1151083205509429,0.0,3.0,-0.1151083205509429,10.087079947264769,8.631541834988868,0.0009336707914089699,294.0,267.0,4.595238095238095,0.14232209737827714,0.3037542662116041,2838.0,8020.0,5.0,3.0,1.0,1.0,0.0,2.0,,1.0,0.0003740648379052369,0.00012468827930174563,0.0,0.3333333333333333,0.3333333333333333,0.0,1.0,1.0,1.0,1.0,1.0
148,2929.0,8020.0,5.476271765107545,0.0018703113951870028,0.0016961748810843922,0.8701868195405915,-0.1151083205509429,0.0,3.0,-0.1151083205509429,10.087079947264769,8.631541834988868,0.0009336707914089699,294.0,267.0,4.595238095238095,0.14232209737827714,0.3037542662116041,2838.0,8020.0,5.0,3.0,1.0,1.0,0.0,2.0,,1.0,0.0003740648379052369,0.00012468827930174563,0.0,0.3333333333333333,0.3333333333333333,0.0,1.0,1.0,1.0,1.0,1.0
149,2929.0,8020.0,5.476271765107545,0.0018703113951870028,0.0016961748810843922,0.8701868195405915,-0.1151083205509429,0.0,3.0,-0.1151083205509429,10.087079947264769,8.631541834988868,0.0009336707914089699,294.0,267.0,4.595238095238095,0.14232209737827714,0.3037542662116041,2838.0,8020.0,5.0,3.0,1.0,1.0,0.0,2.0,,1.0,0.0003740648379052369,0.00012468827930174563,0.0,0.3333333333333333,0.3333333333333333,0.0,1.0,1.0,1.0,1.0,1.0
150,2929.0,8020.0,5.476271765107545,0.0018703113951870028,0.0016961748810843922,0.8701868195405915,-0.1151083205509429,0.0,3.0,-0.1151083205509429,10.087079947264769,8.631541834988868,0.0009336707914089699,294.0,267.0,4.595238095238095,0.14232209737827714,0.3037542662116041,2838.0,8020.0,5.0,3.0,1.0,1.0,0.0,2.0,,1.0,0.0003740648379052369,0.00012468827930174563,0.0,0.3333333333333333,0.3333333333333333,0.0,1.0,1.0,1.0,1.0,1.0
151,2929.0,8020.0,5.476271765107545,0.0018703113951870028,0.0016961748810843922,0.8701868195405915,-0.1151083205509429,0.0,3.0,-0.1151083205509429,10.087079947264769,8.631541834988868,0.0009336707914089699,294.0,267.0,4.595238095238095,0.14232209737827714,0.3037542662116041,2838.0,8020.0,5.0,3.0,1.0,1.0,0.0,2.0,,1.0,0.0003740648379052369,0.00012468827930174563,0.0,0.3333333333333333,0.3333333333333333,0.0,1.0,1.0,1.0,1.0,1.0
152,2929.0,8020.0,5.476271765107545,0.0018703113951870028,0.0016961748810843922,0.8701868195405915,-0.1151083205509429,0.0,3.0,-0.1151083205509429,10.087079947264769,8.631541834988868,0.0009336707914089699,294.0,267.0,4.595238095238095,0.14232209737827714,0.3037542662116041,2838.0,8020.0,5.0,3.0,1.0,1.0,0.0,2.0,,1.0,0.0003740648379052369,0.00012468827930174563,0.0,0.3333333333333333,0.3333333333333333,0.0,1.0,1.0,1.0,1.0,1.0
153,2929.0,8020.0,5.476271765107545,0.0018703113951870028,0.0016961748810843922,0.8701868195405915,-0.1151083205509429,0.0,3.0,-0.1151083205509429,10.087079947264769,8.631541834988868,0.0009336707914089699,294.0,267.0,4.595238095238095,0.14232209737827714,0.3037542662116041,2838.0,8020.0,5.0,3.0,1.0,1.0,0.0,2.0,,1.0,0.0003740648379052369,0.00012468827930174563,0.0,0.3333333333333333,0.3333333333333333,0.0,1.0,1.0,1.0,1.0,1.0
154,2929.0,8020.0,5.476271765107545,0.0018703113951870028,0.0016961748810843922,0.8701868195405915,-0.1151083205509429,0.0,3.0,-0.1151083205509429,10.087079947264769,8.631541834988868,0.0009336707914089699,294.0,267.0,4.595238095238095,0.14232209737827714,0.3037542662116041,2838.0,8020.0,5.0,3.0,1.0,1.0,0.0,2.0,,1.0,0.0003740648379052369,0.00012468827930174563,0.0,0.3333333333333333,0.3333333333333333,0.0,1.0,1.0,1.0,1.0,1.0
155,2929.0,8020.0,5.476271765107545,0.0018703113951870028,0.0016961748810843922,0.8701868195405915,-0.1151083205509429,0.0,3.0,-0.1151083205509429,10.087079947264769,8.631541834988868,0.0009336707914089699,294.0,267.0,4.595238095238095,0.14232209737827714,0.3037542662116041,2838.0,8020.0,5.0,3.0,1.0,1.0,0.0,2.0,,1.0,0.0003740648379052369,0.00012468827930174563,0.0,0.3333333333333333,0.3333333333333333,0.0,1.0,1.0,1.0,1.0,1.0
156,2929.0,8020.0,5.476271765107545,0.0018703113951870028,0.0016961748810843922,0.8701868195405915,-0.1151083205509429,0.0,3.0,-0.1151083205509429,10.087079947264769,8.631541834988868,0.0009336707914089699,294.0,267.0,4.595238095238095,0.14232209737827714,0.3037542662116041,2838.0,8020.0,5.0,3.0,1.0,1.0,0.0,2.0,,1.0,0.0003740648379052369,0.00012468827930174563,0.0,0.3333333333333333,0.3333333333333333,0.0,1.0,1.0,1.0,1.0,1.0
157,2929.0,8020.0,5.476271765107545,0.0018703113951870028,0.0016961748810843922,0.8701868195405915,-0.1151083205509429,0.0,3.0,-0.1151083205509429,10.087079947264769,8.631541834988868,0.0009336707914089699,294.0,267.0,4.595238095238095,0.14232209737827714,0.3037542662116041,2838.0,8020.0,5.0,3.0,1.0,1.0,0.0,2.0,,1.0,0.0003740648379052369,0.00012468827930174563,0.0,0.3333333333333333,0.3333333333333333,0.0,1.0,1.0,1.0,1.0,1.0
158,2929.0,8020.0,5.476271765107545,0.0018703113951870028,0.0016961748810843922,0.8701868195405915,-0.1151083205509429,0.0,3.0,-0.1151083205509429,10.087079947264769,8.631541834988868,0.0009336707914089699,294.0,267.0,4.595238095238095,0.14232209737827714,0.3037542662116041,2838.0,8020.0,5.0,3.0,1.0,1.0,0.0,2.0,,1.0,0.0003740648379052369,0.00012468827930174563,0.0,0.3333333333333333,0.3333333333333333,0.0,1.0,1.0,1.0,1.0,1.0
159,2929.0,8020.0,5.476271765107545,0.0018703113951870028,0.0016961748810843922,0.8701868195405915,-0.1151083205509429,0.0,3.0,-0.1151083205509429,10.087079947264769,8.631541834988868,0.0009336707914089699,294.0,267.0,4.595238095238095,0.14232209737827714,0.3037542662116041,2838.0,8020.0,5.0,3.0,1.0,1.0,0.0,2.0,,1.0,0.0003740648379052369,0.00012468827930174563,0.0,0.3333333333333333,0.3333333333333333,0.0,1.0,1.0,1.0,1.0,1.0
160,2929.0,8020.0,5.476271765107545,0.0018703113951870028,0.0016961748810843922,0.8701868195405915,-0.1151083205509429,0.0,3.0,-0.1151083205509429,10.087079947264769,8.631541834988868,0.0009336707914089699,294.0,267.0,4.595238095238095,0.14232209737827714,0.3037542662116041,2838.0,8020.0,5.0,3.0,1.0,1.0,0.0,2.0,,1.0,0.0003740648379052369,0.00012468827930174563,0.0,0.3333333333333333,0.3333333333333333,0.0,1.0,1.0,1.0,1.0,1.0
161,2929.0,8020.0,5.476271765107545,0.0018703113951870028,0.0016961748810843922,0.8701868195405915,-0.1151083205509429,0.0,3.0,-0.1151083205509429,10.087079947264769,8.631541834988868,0.0009336707914089699,294.0,267.0,4.595238095238095,0.14232209737827714,0.3037542662116041,2838.0,8020.0,5.0,3.0,1.0,1.0,0.0,2.0,,1.0,0.0003740648379052369,0.00012468827930174563,0.0,0.3333333333333333,0.3333333333333333,0.0,1.0,1.0,1.0,1.0,1.0
162,2929.0,8020.0,5.476271765107545,0.0018703113951870028,0.0016961748810843922,0.8701868195405915,-0.1151083205509429,0.0,3.0,-0.1151083205509429,10.087079947264769,8.631541834988868,0.0009336707914089699,294.0,267.0,4.595238095238095,0.14232209737827714,0.3037542662116041,2838.0,8020.0,5.0,3.0,1.0,1.0,0.0,2.0,,1.0,0.0003740648379052369,0.00012468827930174563,0.0,0.3333333333333333,0.3333333333333333,0.0,1.0,1.0,1.0,1.0,1.0
163,2929.0,8020.0,5.476271765107545,0.0018703113951870028,0.0016961748810843922,0.8701868195405915,-0.1151083205509429,0.0,3.0,-0.1151083205509429,10.087079947264769,8.631541834988868,0.0009336707914089699,294.0,267.0,4.595238095238095,0.14232209737827714,0.3037542662116041,2838.0,8020.0,5.0,3.0,1.0,1.0,0.0,2.0,,1.0,0.0003740648379052369,0.00012468827930174563,0.0,0.3333333333333333,0.3333333333333333,0.0,1.0,1.0,1.0,1.0,1.0
164,2929.0,8020.0,5.476271765107545,0.0018703113951870028,0.0016961748810843922,0.8701868195405915,-0.1151083205509429,0.0,3.0,-0.1151083205509429,10.087079947264769,8.631541834988868,0.0009336707914089699,294.0,267.0,4.595238095238095,0.14232209737827714,0.3037542662116041,2838.0,8020.0,5.0,3.0,1.0,1.0,0.0,2.0,,1.0,0.0003740648379052369,0.00012468827930174563,0.0,0.3333333333333333,0.3333333333333333,0.0,1.0,1.0,1.0,1.0,1.0
165,2929.0,8020.0,5.476271765107545,0.0018703113951870028,0.0016961748810843922,0.8701868195405915,-0.1151083205509429,0.0,3.0,-0.1151083205509429,10.087079947264769,8.631541834988868,0.0009336707914089699,294.0,267.0,4.595238095238095,0.14232209737827714,0.3037542662116041,2838.0,8020.0,5.0,3.0,1.0,1.0,0.0,2.0,,1.0,0.0003740648379052369,0.00012468827930174563,0.0,0.3333333333333333,0.3333333333333333,0.0,1.0,1.0,1.0,1.0,1.0
166,2929.0,8020.0,5.476271765107545,0.0018703113951870028,0.0016961748810843922,0.8701868195405915,-0.1151083205509429,0.0,3.0,-0.1151083205509429,10.087079947264769,8.631541834988868,0.0009336707914089699,294.0,267.0,4.595238095238095,0.14232209737827714,0.3037542662116041,2838.0,8020.0,5.0,3.0,1.0,1.0,0.0,2.0,,1.0,0.0003740648379052369,0.00012468827930174563,0.0,0.3333333333333333,0.3333333333333333,0.0,1.0,1.0,1.0,1.0,1.0
167,2929.0,8020.0,5.476271765107545,0.0018703113951870028,0.0016961748810843922,0.8701868195405915,-0.1151083205509429,0.0,3.0,-0.1151083205509429,10.087079947264769,8.631541834988868,0.0009336707914089699,294.0,267.0,4.595238095238095,0.14232209737827714,0.3037542662116041,2838.0,8020.0,5.0,3.0,1.0,1.0,0.0,2.0,,1.0,0.0003740648379052369,0.00012468827930174563,0.0,0.3333333333333333,0.3333333333333333,0.0,1.0,1.0,1.0,1.0,1.0
168,2929.0,8020.0,5.476271765107545,0.0018703113951870028,0.0016961748810843922,0.8701868195405915,-0.1151083205509429,0.0,3.0,-0.1151083205509429,10.087079947264769,8.631541834988868,0.0009336707914089699,294.0,267.0,4.595238095238095,0.14232209737827714,0.3037542662116041,2838.0,8020.0,5.0,3.0,1.0,1.0,0.0,2.0,,1.0,0.0003740648379052369,0.00012468827930174563,0.0,0.3333333333333333,0.3333333333333333,0.0,1.0,1.0,1.0,1.0,1.0
169,2929.0,8020.0,5.476271765107545,0.0018703113951870028,0.0016961748810843922,0.8701868195405915,-0.1151083205509429,0.0,3.0,-0.1151083205509429,10.087079947264769,8.631541834988868,0.0009336707914089699,294.0,267.0,4.595238095238095,0.14232209737827714,0.3037542662116041,2838.0,8020.0,5.0,3.0,1.0,1.0,0.0,2.0,,1.0,0.0003740648379052369,0.00012468827930174563,0.0,0.3333333333333333,0.3333333333333333,0.0,1.0,1.0,1.0,1.0,1.0
170,2929.0,8020.0,5.476271765107545,0.0018703113951870028,0.0016961748810843922,0.8701868195405915,-0.1151083205509429,0.0,3.0,-0.1151083205509429,10.087079947264769,8.631541834988868,0.0009336707914089699,294.0,267.0,4.595238095238095,0.14232209737827714,0.3037542662116041,2838.0,8020.0,5.0,3.0,1.0,1.0,0.0,2.0,,1.0,0.0003740648379052369,0.00012468827930174563,0.0,0.3333333333333333,0.3333333333333333,0.0,1.0,1.0,1.0,1.0,1.0
171,2929.0,8020.0,5.476271765107545,0.0018703113951870028,0.0016961748810843922,0.8701868195405915,-0.1151083205509429,0.0,3.0,-0.1151083205509429,10.087079947264769,8.631541834988868,0.0009336707914089699,294.0,267.0,4.595238095238095,0.14232209737827714,0.3037542662116041,2838.0,8020.0,5.0,3.0,1.0,1.0,0.0,2.0,,1.0,0.0003740648379052369,0.00012468827930174563,0.0,0.3333333333333333,0.3333333333333333,0.0,1.0,1.0,1.0,1.0,1.0
172,2929.0,8020.0,5.476271765107545,0.0018703113951870028,0.0016961748810843922,0.8701868195405915,-0.1151083205509429,0.0,3.0,-0.1151083205509429,10.087079947264769,8.631541834988868,0.0009336707914089699,294.0,267.0,4.595238095238095,0.14232209737827714,0.3037542662116041,2838.0,8020.0,5.0,3.0,1.0,1.0,0.0,2.0,,1.0,0.0003740648379052369,0.00012468827930174563,0.0,0.3333333333333333,0.3333333333333333,0.0,1.0,1.0,1.0,1.0,1.0
173,2929.0,8020.0,5.476271765107545,0.0018703113951870028,0.0016961748810843922,0.8701868195405915,-0.1151083205509429,0.0,3.0,-0.1151083205509429,10.087079947264769,8.631541834988868,0.0009336707914089699,294.0,267.0,4.595238095238095,0.14232209737827714,0.3037542662116041,2838.0,8020.0,5.0,3.0,1.0,1.0,0.0,2.0,,1.0,0.0003740648379052369,0.00012468827930174563,0.0,0.3333333333333333,0.3333333333333333,0.0,1.0,1.0,1.0,1.0,1.0
174,2929.0,8020.0,5.476271765107545,0.0018703113951870028,0.0016961748810843922,0.8701868195405915,-0.1151083205509429,0.0,3.0,-0.1151083205509429,10.087079947264769,8.631541834988868,0.0009336707914089699,294.0,267.0,4.595238095238095,0.14232209737827714,0.3037542662116041,2838.0,8020.0,5.0,3.0,1.0,1.0,0.0,2.0,,1.0,0.0003740648379052369,0.00012468827930174563,0.0,0.3333333333333333,0.3333333333333333,0.0,1.0,1.0,1.0,1.0,1.0
175,2929.0,8020.0,5.476271765107545,0.0018703113951870028,0.0016961748810843922,0.8701868195405915,-0.1151083205509429,0.0,3.0,-0.1151083205509429,10.087079947264769,8.631541834988868,0.0009336707914089699,294.0,267.0,4.595238095238095,0.14232209737827714,0.3037542662116041,2838.0,8020.0,5.0,3.0,1.0,1.0,0.0,2.0,,1.0,0.0003740648379052369,0.00012468827930174563,0.0,0.3333333333333333,0.3333333333333333,0.0,1.0,1.0,1.0,1.0,1.0
176,2929.0,8020.0,5.476271765107545,0.0018703113951870028,0.0016961748810843922,0.8701868195405915,-0.1151083205509429,0.0,3.0,-0.1151083205509429,10.087079947264769,8.631541834988868,0.0009336707914089699,294.0,267.0,4.595238095238095,0.14232209737827714,0.3037542662116041,2838.0,8020.0,5.0,3.0,1.0,1.0,0.0,2.0,,1.0,0.0003740648379052369,0.00012468827930174563,0.0,0.3333333333333333,0.3333333333333333,0.0,1.0,1.0,1.0,1.0,1.0
177,2929.0,8020.0,5.476271765107545,0.0018703113951870028,0.0016961748810843922,0.8701868195405915,-0.1151083205509429,0.0,3.0,-0.1151083205509429,10.087079947264769,8.631541834988868,0.0009336707914089699,294.0,267.0,4.595238095238095,0.14232209737827714,0.3037542662116041,2838.0,8020.0,5.0,3.0,1.0,1.0,0.0,2.0,,1.0,0.0003740648379052369,0.00012468827930174563,0.0,0.3333333333333333,0.3333333333333333,0.0,1.0,1.0,1.0,1.0,1.0
178,2929.0,8020.0,5.476271765107545,0.0018703113951870028,0.0016961748810843922,0.8701868195405915,-0.1151083205509429,0.0,3.0,-0.1151083205509429,10.087079947264769,8.631541834988868,0.0009336707914089699,294.0,267.0,4.595238095238095,0.14232209737827714,0.3037542662116041,2838.0,8020.0,5.0,3.0,1.0,1.0,0.0,2.0,,1.0,0.0003740648379052369,0.00012468827930174563,0.0,0.3333333333333333,0.3333333333333333,0.0,1.0,1.0,1.0,1.0,1.0
179,2929.0,8020.0,5.476271765107545,0.0018703113951870028,0.0016961748810843922,0.8701868195405915,-0.1151083205509429,0.0,3.0,-0.1151083205509429,10.087079947264769,8.631541834988868,0.0009336707914089699,294.0,267.0,4.595238095238095,0.14232209737827714,0.3037542662116041,2838.0,8020.0,5.0,3.0,1.0,1.0,0.0,2.0,,1.0,0.0003740648379052369,0.00012468827930174563,0.0,0.3333333333333333,0.3333333333333333,0.0,1.0,1.0,1.0,1.0,1.0
180,2929.0,8020.0,5.476271765107545,0.0018703113951870028,0.0016961748810843922,0.8701868195405915,-0.1151083205509429,0.0,3.0,-0.1151083205509429,10.087079947264769,8.631541834988868,0.0009336707914089699,294.0,267.0,4.595238095238095,0.14232209737827714,0.3037542662116041,2838.0,8020.0,5.0,3.0,1.0,1.0,0.0,2.0,,1.0,0.0003740648379052369,0.00012468827930174563,0.0,0.3333333333333333,0.3333333333333333,0.0,1.0,1.0,1.0,1.0,1.0
181,2929.0,8020.0,5.476271765107545,0.0018703113951870028,0.0016961748810843922,0.8701868195405915,-0.1151083205509429,0.0,3.0,-0.1151083205509429,10.087079947264769,8.631541834988868,0.0009336707914089699,294.0,267.0,4.595238095238095,0.14232209737827714,0.3037542662116041,2838.0,8020.0,5.0,3.0,1.0,1.0,0.0,2.0,,1.0,0.0003740648379052369,0.00012468827930174563,0.0,0.3333333333333333,0.3333333333333333,0.0,1.0,1.0,1.0,1.0,1.0
182,2929.0,8020.0,5.476271765107545,0.0018703113951870028,0.0016961748810843922,0.8701868195405915,-0.1151083205509429,0.0,3.0,-0.1151083205509429,10.087079947264769,8.631541834988868,0.0009336707914089699,294.0,267.0,4.595238095238095,0.14232209737827714,0.3037542662116041,2838.0,8020.0,5.0,3.0,1.0,1.0,0.0,2.0,,1.0,0.0003740648379052369,0.00012468827930174563,0.0,0.3333333333333333,0.3333333333333333,0.0,1.0,1.0,1.0,1.0,1.0
183,2929.0,8020.0,5.476271765107545,0.0018703113951870028,0.0016961748810843922,0.8701868195405915,-0.1151083205509429,0.0,3.0,-0.1151083205509429,10.087079947264769,8.631541834988868,0.0009336707914089699,294.0,267.0,4.595238095238095,0.14232209737827714,0.3037542662116041,2838.0,8020.0,5.0,3.0,1.0,1.0,0.0,2.0,,1.0,0.0003740648379052369,0.00012468827930174563,0.0,0.3333333333333333,0.3333333333333333,0.0,1.0,1.0,1.0,1.0,1.0
184,2929.0,8020.0,5.476271765107545,0.0018703113951870028,0.0016961748810843922,0.8701868195405915,-0.1151083205509429,0.0,3.0,-0.1151083205509429,10.087079947264769,8.631541834988868,0.0009336707914089699,294.0,267.0,4.595238095238095,0.14232209737827714,0.3037542662116041,2838.0,8020.0,5.0,3.0,1.0,1.0,0.0,2.0,,1.0,0.0003740648379052369,0.00012468827930174563,0.0,0.3333333333333333,0.3333333333333333,0.0,1.0,1.0,1.0,1.0,1.0
185,2929.0,8020.0,5.476271765107545,0.0018703113951870028,0.0016961748810843922,0.8701868195405915,-0.1151083205509429,0.0,3.0,-0.1151083205509429,10.087079947264769,8.631541834988868,0.0009336707914089699,294.0,267.0,4.595238095238095,0.14232209737827714,0.3037542662116041,2838.0,8020.0,5.0,3.0,1.0,1.0,0.0,2.0,,1.0,0.0003740648379052369,0.00012468827930174563,0.0,0.3333333333333333,0.3333333333333333,0.0,1.0,1.0,1.0,1.0,1.0
186,2929.0,8020.0,5.476271765107545,0.0018703113951870028,0.0016961748810843922,0.8701868195405915,-0.1151083205509429,0.0,3.0,-0.1151083205509429,10.087079947264769,8.631541834988868,0.0009336707914089699,294.0,267.0,4.595238095238095,0.14232209737827714,0.3037542662116041,2838.0,8020.0,5.0,3.0,1.0,1.0,0.0,2.0,,1.0,0.0003740648379052369,0.00012468827930174563,0.0,0.3333333333333333,0.3333333333333333,0.0,1.0,1.0,1.0,1.0,1.0
187,2929.0,8020.0,5.476271765107545,0.0018703113951870028,0.0016961748810843922,0.8701868195405915,-0.1151083205509429,0.0,3.0,-0.1151083205509429,10.087079947264769,8.631541834988868,0.0009336707914089699,294.0,267.0,4.595238095238095,0.14232209737827714,0.3037542662116041,2838.0,8020.0,5.0,3.0,1.0,1.0,0.0,2.0,,1.0,0.0003740648379052369,0.00012468827930174563,0.0,0.3333333333333333,0.3333333333333333,0.0,1.0,1.0,1.0,1.0,1.0
188,2929.0,8020.0,5.476271765107545,0.0018703113951870028,0.0016961748810843922,0.8701868195405915,-0.1151083205509429,0.0,3.0,-0.1151083205509429,10.087079947264769,8.631541834988868,0.0009336707914089699,294.0,267.0,4.595238095238095,0.14232209737827714,0.3037542662116041,2838.0,8020.0,5.0,3.0,1.0,1.0,0.0,2.0,,1.0,0.0003740648379052369,0.00012468827930174563,0.0,0.3333333333333333,0.3333333333333333,0.0,1.0,1.0,1.0,1.0,1.0
189,2929.0,8020.0,5.476271765107545,0.0018703113951870028,0.0016961748810843922,0.8701868195405915,-0.1151083205509429,0.0,3.0,-0.1151083205509429,10.087079947264769,8.631541834988868,0.0009336707914089699,294.0,267.0,4.595238095238095,0.14232209737827714,0.3037542662116041,2838.0,8020.0,5.0,3.0,1.0,1.0,0.0,2.0,,1.0,0.0003740648379052369,0.00012468827930174563,0.0,0.3333333333333333,0.3333333333333333,0.0,1.0,1.0,1.0,1.0,1.0
190,2929.0,8020.0,5.476271765107545,0.0018703113951870028,0.0016961748810843922,0.8701868195405915,-0.1151083205509429,0.0,3.0,-0.1151083205509429,10.087079947264769,8.631541834988868,0.0009336707914089699,294.0,267.0,4.595238095238095,0.14232209737827714,0.3037542662116041,2838.0,8020.0,5.0,3.0,1.0,1.0,0.0,2.0,,1.0,0.0003740648379052369,0.00012468827930174563,0.0,0.3333333333333333,0.3333333333333333,0.0,1.0,1.0,1.0,1.0,1.0
191,2929.0,8020.0,5.476271765107545,0.0018703113951870028,0.0016961748810843922,0.8701868195405915,-0.1151083205509429,0.0,3.0,-0.1151083205509429,10.087079947264769,8.631541834988868,0.0009336707914089699,294.0,267.0,4.595238095238095,0.14232209737827714,0.3037542662116041,2838.0,8020.0,5.0,3.0,1.0,1.0,0.0,2.0,,1.0,0.0003740648379052369,0.00012468827930174563,0.0,0.3333333333333333,0.3333333333333333,0.0,1.0,1.0,1.0,1.0,1.0
192,2929.0,8020.0,5.476271765107545,0.0018703113951870028,0.0016961748810843922,0.8701868195405915,-0.1151083205509429,0.0,3.0,-0.1151083205509429,10.087079947264769,8.631541834988868,0.0009336707914089699,294.0,267.0,4.595238095238095,0.14232209737827714,0.3037542662116041,2838.0,8020.0,5.0,3.0,1.0,1.0,0.0,2.0,,1.0,0.0003740648379052369,0.00012468827930174563,0.0,0.3333333333333333,0.3333333333333333,0.0,1.0,1.0,1.0,1.0,1.0
193,2929.0,8020.0,5.476271765107545,0.0018703113951870028,0.0016961748810843922,0.8701868195405915,-0.1151083205509429,0.0,3.0,-0.1151083205509429,10.087079947264769,8.631541834988868,0.0009336707914089699,294.0,267.0,4.595238095238095,0.14232209737827714,0.3037542662116041,2838.0,8020.0,5.0,3.0,1.0,1.0,0.0,2.0,,1.0,0.0003740648379052369,0.00012468827930174563,0.0,0.3333333333333333,0.3333333333333333,0.0,1.0,1.0,1.0,1.0,1.0
194,2929.0,8020.0,5.476271765107545,0.0018703113951870028,0.0016961748810843922,0.8701868195405915,-0.1151083205509429,0.0,3.0,-0.1151083205509429,10.087079947264769,8.631541834988868,0.0009336707914089699,294.0,267.0,4.595238095238095,0.14232209737827714,0.3037542662116041,2838.0,8020.0,5.0,3.0,1.0,1.0,0.0,2.0,,1.0,0.0003740648379052369,0.00012468827930174563,0.0,0.3333333333333333,0.3333333333333333,0.0,1.0,1.0,1.0,1.0,1.0
195,2929.0,8020.0,5.476271765107545,0.0018703113951870028,0.0016961748810843922,0.8701868195405915,-0.1151083205509429,0.0,3.0,-0.1151083205509429,10.087079947264769,8.631541834988868,0.0009336707914089699,294.0,267.0,4.595238095238095,0.14232209737827714,0.3037542662116041,2838.0,8020.0,5.0,3.0,1.0,1.0,0.0,2.0,,1.0,0.0003740648379052369,0.00012468827930174563,0.0,0.3333333333333333,0.3333333333333333,0.0,1.0,1.0,1.0,1.0,1.0
196,2929.0,8020.0,5.476271765107545,0.0018703113951870028,0.0016961748810843922,0.8701868195405915,-0.1151083205509429,0.0,3.0,-0.1151083205509429,10.087079947264769,8.631541834988868,0.0009336707914089699,294.0,267.0,4.595238095238095,0.14232209737827714,0.3037542662116041,2838.0,8020.0,5.0,3.0,1.0,1.0,0.0,2.0,,1.0,0.0003740648379052369,0.00012468827930174563,0.0,0.3333333333333333,0.3333333333333333,0.0,1.0,1.0,1.0,1.0,1.0
197,2929.0,8020.0,5.476271765107545,0.0018703113951870028,0.0016961748810843922,0.8701868195405915,-0.1151083205509429,0.0,3.0,-0.1151083205509429,10.087079947264769,8.631541834988868,0.0009336707914089699,294.0,267.0,4.595238095238095,0.14232209737827714,0.3037542662116041,2838.0,8020.0,5.0,3.0,1.0,1.0,0.0,2.0,,1.0,0.0003740648379052369,0.00012468827930174563,0.0,0.3333333333333333,0.3333333333333333,0.0,1.0,1.0,1.0,1.0,1.0
198,2929.0,8020.0,5.476271765107545,0.0018703113951870028,0.0016961748810843922,0.8701868195405915,-0.1151083205509429,0.0,3.0,-0.1151083205509429,10.087079947264769,8.631541834988868,0.0009336707914089699,294.0,267.0,4.595238095238095,0.14232209737827714,0.3037542662116041,2838.0,8020.0,5.0,3.0,1.0,1.0,0.0,2.0,,1.0,0.0003740648379052369,0.00012468827930174563,0.0,0.3333333333333333,0.3333333333333333,0.0,1.0,1.0,1.0,1.0,1.0
199,2929.0,8020.0,5.476271765107545,0.0018703113951870028,0.0016961748810843922,0.8701868195405915,-0.1151083205509429,0.0,3.0,-0.1151083205509429,10.087079947264769,8.631541834988868,0.0009336707914089699,294.0,267.0,4.595238095238095,0.14232209737827714,0.3037542662116041,2838.0,8020.0,5.0,3.0,1.0,1.0,0.0,2.0,,1.0,0.0003740648379052369,0.00012468827930174563,0.0,0.3333333333333333,0.3333333333333333,0.0,1.0,1.0,1.0,1.0,1.0
200,2929.0,8020.0,5.476271765107545,0.0018703113951870028,0.0016961748810843922,0.8701868195405915,-0.1151083205509429,0.0,3.0,-0.1151083205509429,10.087079947264769,8.631541834988868,0.0009336707914089699,294.0,267.0,4.595238095238095,0.14232209737827714,0.3037542662116041,2838.0,8020.0,5.0,3.0,1.0,1.0,0.0,2.0,,1.0,0.0003740648379052369,0.00012468827930174563,0.0,0.3333333333333333,0.3333333333333333,0.0,1.0,1.0,1.0,1.0,1.0
201,2929.0,8020.0,5.476271765107545,0.0018703113951870028,0.0016961748810843922,0.8701868195405915,-0.1151083205509429,0.0,3.0,-0.1151083205509429,10.087079947264769,8.631541834988868,0.0009336707914089699,294.0,267.0,4.595238095238095,0.14232209737827714,0.3037542662116041,2838.0,8020.0,5.0,3.0,1.0,1.0,0.0,2.0,,1.0,0.0003740648379052369,0.00012468827930174563,0.0,0.3333333333333333,0.3333333333333333,0.0,1.0,1.0,1.0,1.0,1.0
202,2929.0,8020.0,5.476271765107545,0.0018703113951870028,0.0016961748810843922,0.8701868195405915,-0.1151083205509429,0.0,3.0,-0.1151083205509429,10.087079947264769,8.631541834988868,0.0009336707914089699,294.0,267.0,4.595238095238095,0.14232209737827714,0.3037542662116041,2838.0,8020.0,5.0,3.0,1.0,1.0,0.0,2.0,,1.0,0.0003740648379052369,0.00012468827930174563,0.0,0.3333333333333333,0.3333333333333333,0.0,1.0,1.0,1.0,1.0,1.0
203,2929.0,8020.0,5.476271765107545,0.0018703113951870028,0.0016961748810843922,0.8701868195405915,-0.1151083205509429,0.0,3.0,-0.1151083205509429,10.087079947264769,8.631541834988868,0.0009336707914089699,294.0,267.0,4.595238095238095,0.14232209737827714,0.3037542662116041,2838.0,8020.0,5.0,3.0,1.0,1.0,0.0,2.0,,1.0,0.0003740648379052369,0.00012468827930174563,0.0,0.3333333333333333,0.3333333333333333,0.0,1.0,1.0,1.0,1.0,1.0
204,2929.0,8020.0,5.476271765107545,0.0018703113951870028,0.0016961748810843922,0.8701868195405915,-0.1151083205509429,0.0,3.0,-0.1151083205509429,10.087079947264769,8.631541834988868,0.0009336707914089699,294.0,267.0,4.595238095238095,0.14232209737827714,0.3037542662116041,2838.0,8020.0,5.0,3.0,1.0,1.0,0.0,2.0,,1.0,0.0003740648379052369,0.00012468827930174563,0.0,0.3333333333333333,0.3333333333333333,0.0,1.0,1.0,1.0,1.0,1.0
205,2929.0,8020.0,5.476271765107545,0.0018703113951870028,0.0016961748810843922,0.8701868195405915,-0.1151083205509429,0.0,3.0,-0.1151083205509429,10.087079947264769,8.631541834988868,0.0009336707914089699,294.0,267.0,4.595238095238095,0.14232209737827714,0.3037542662116041,2838.0,8020.0,5.0,3.0,1.0,1.0,0.0,2.0,,1.0,0.0003740648379052369,0.00012468827930174563,0.0,0.3333333333333333,0.3333333333333333,0.0,1.0,1.0,1.0,1.0,1.0
206,2929.0,8020.0,5.476271765107545,0.0018703113951870028,0.0016961748810843922,0.8701868195405915,-0.1151083205509429,0.0,3.0,-0.1151083205509429,10.087079947264769,8.631541834988868,0.0009336707914089699,294.0,267.0,4.595238095238095,0.14232209737827714,0.3037542662116041,2838.0,8020.0,5.0,3.0,1.0,1.0,0.0,2.0,,1.0,0.0003740648379052369,0.00012468827930174563,0.0,0.3333333333333333,0.3333333333333333,0.0,1.0,1.0,1.0,1.0,1.0
207,2929.0,8020.0,5.476271765107545,0.0018703113951870028,0.0016961748810843922,0.8701868195405915,-0.1151083205509429,0.0,3.0,-0.1151083205509429,10.087079947264769,8.631541834988868,0.0009336707914089699,294.0,267.0,4.595238095238095,0.14232209737827714,0.3037542662116041,2838.0,8020.0,5.0,3.0,1.0,1.0,0.0,2.0,,1.0,0.0003740648379052369,0.00012468827930174563,0.0,0.3333333333333333,0.3333333333333333,0.0,1.0,1.0,1.0,1.0,1.0
208,2929.0,8020.0,5.476271765107545,0.0018703113951870028,0.0016961748810843922,0.8701868195405915,-0.1151083205509429,0.0,3.0,-0.1151083205509429,10.087079947264769,8.631541834988868,0.0009336707914089699,294.0,267.0,4.595238095238095,0.14232209737827714,0.3037542662116041,2838.0,8020.0,5.0,3.0,1.0,1.0,0.0,2.0,,1.0,0.0003740648379052369,0.00012468827930174563,0.0,0.3333333333333333,0.3333333333333333,0.0,1.0,1.0,1.0,1.0,1.0
209,2929.0,8020.0,5.476271765107545,0.0018703113951870028,0.0016961748810843922,0.8701868195405915,-0.1151083205509429,0.0,3.0,-0.1151083205509429,10.087079947264769,8.631541834988868,0.0009336707914089699,294.0,267.0,4.595238095238095,0.14232209737827714,0.3037542662116041,2838.0,8020.0,5.0,3.0,1.0,1.0,0.0,2.0,,1.0,0.0003740648379052369,0.00012468827930174563,0.0,0.3333333333333333,0.3333333333333333,0.0,1.0,1.0,1.0,1.0,1.0
210,2929.0,8020.0,5.476271765107545,0.0018703113951870028,0.0016961748810843922,0.8701868195405915,-0.1151083205509429,0.0,3.0,-0.1151083205509429,10.087079947264769,8.631541834988868,0.0009336707914089699,294.0,267.0,4.595238095238095,0.14232209737827714,0.3037542662116041,2838.0,8020.0,5.0,3.0,1.0,1.0,0.0,2.0,,1.0,0.0003740648379052369,0.00012468827930174563,0.0,0.3333333333333333,0.3333333333333333,0.0,1.0,1.0,1.0,1.0,1.0
211,2929.0,8020.0,5.476271765107545,0.0018703113951870028,0.0016961748810843922,0.8701868195405915,-0.1151083205509429,0.0,3.0,-0.1151083205509429,10.087079947264769,8.631541834988868,0.0009336707914089699,294.0,267.0,4.595238095238095,0.14232209737827714,0.3037542662116041,2838.0,8020.0,5.0,3.0,1.0,1.0,0.0,2.0,,1.0,0.0003740648379052369,0.00012468827930174563,0.0,0.3333333333333333,0.3333333333333333,0.0,1.0,1.0,1.0,1.0,1.0
212,2929.0,8020.0,5.476271765107545,0.0018703113951870028,0.0016961748810843922,0.8701868195405915,-0.1151083205509429,0.0,3.0,-0.1151083205509429,10.087079947264769,8.631541834988868,0.0009336707914089699,294.0,267.0,4.595238095238095,0.14232209737827714,0.3037542662116041,2838.0,8020.0,5.0,3.0,1.0,1.0,0.0,2.0,,1.0,0.0003740648379052369,0.00012468827930174563,0.0,0.3333333333333333,0.3333333333333333,0.0,1.0,1.0,1.0,1.0,1.0
213,2929.0,8020.0,5.476271765107545,0.0018703113951870028,0.0016961748810843922,0.8701868195405915,-0.1151083205509429,0.0,3.0,-0.1151083205509429,10.087079947264769,8.631541834988868,0.0009336707914089699,294.0,267.0,4.595238095238095,0.14232209737827714,0.3037542662116041,2838.0,8020.0,5.0,3.0,1.0,1.0,0.0,2.0,,1.0,0.0003740648379052369,0.00012468827930174563,0.0,0.3333333333333333,0.3333333333333333,0.0,1.0,1.0,1.0,1.0,1.0
214,2929.0,8020.0,5.476271765107545,0.0018703113951870028,0.0016961748810843922,0.8701868195405915,-0.1151083205509429,0.0,3.0,-0.1151083205509429,10.087079947264769,8.631541834988868,0.0009336707914089699,294.0,267.0,4.595238095238095,0.14232209737827714,0.3037542662116041,2838.0,8020.0,5.0,3.0,1.0,1.0,0.0,2.0,,1.0,0.0003740648379052369,0.00012468827930174563,0.0,0.3333333333333333,0.3333333333333333,0.0,1.0,1.0,1.0,1.0,1.0
215,2929.0,8020.0,5.476271765107545,0.0018703113951870028,0.0016961748810843922,0.8701868195405915,-0.1151083205509429,0.0,3.0,-0.1151083205509429,10.087079947264769,8.631541834988868,0.0009336707914089699,294.0,267.0,4.595238095238095,0.14232209737827714,0.3037542662116041,2838.0,8020.0,5.0,3.0,1.0,1.0,0.0,2.0,,1.0,0.0003740648379052369,0.00012468827930174563,0.0,0.3333333333333333,0.3333333333333333,0.0,1.0,1.0,1.0,1.0,1.0
216,2929.0,8020.0,5.476271765107545,0.0018703113951870028,0.0016961748810843922,0.8701868195405915,-0.1151083205509429,0.0,3.0,-0.1151083205509429,10.087079947264769,8.631541834988868,0.0009336707914089699,294.0,267.0,4.595238095238095,0.14232209737827714,0.3037542662116041,2838.0,8020.0,5.0,3.0,1.0,1.0,0.0,2.0,,1.0,0.0003740648379052369,0.00012468827930174563,0.0,0.3333333333333333,0.3333333333333333,0.0,1.0,1.0,1.0,1.0,1.0
217,2929.0,8020.0,5.476271765107545,0.0018703113951870028,0.0016961748810843922,0.8701868195405915,-0.1151083205509429,0.0,3.0,-0.1151083205509429,10.087079947264769,8.631541834988868,0.0009336707914089699,294.0,267.0,4.595238095238095,0.14232209737827714,0.3037542662116041,2838.0,8020.0,5.0,3.0,1.0,1.0,0.0,2.0,,1.0,0.0003740648379052369,0.00012468827930174563,0.0,0.3333333333333333,0.3333333333333333,0.0,1.0,1.0,1.0,1.0,1.0
218,2929.0,8020.0,5.476271765107545,0.0018703113951870028,0.0016961748810843922,0.8701868195405915,-0.1151083205509429,0.0,3.0,-0.1151083205509429,10.087079947264769,8.631541834988868,0.0009336707914089699,294.0,267.0,4.595238095238095,0.14232209737827714,0.3037542662116041,2838.0,8020.0,5.0,3.0,1.0,1.0,0.0,2.0,,1.0,0.0003740648379052369,0.00012468827930174563,0.0,0.3333333333333333,0.3333333333333333,0.0,1.0,1.0,1.0,1.0,1.0
219,2929.0,8020.0,5.476271765107545,0.0018703113951870028,0.0016961748810843922,0.8701868195405915,-0.1151083205509429,0.0,3.0,-0.1151083205509429,10.087079947264769,8.631541834988868,0.0009336707914089699,294.0,267.0,4.595238095238095,0.14232209737827714,0.3037542662116041,2838.0,8020.0,5.0,3.0,1.0,1.0,0.0,2.0,,1.0,0.0003740648379052369,0.00012468827930174563,0.0,0.3333333333333333,0.3333333333333333,0.0,1.0,1.0,1.0,1.0,1.0
220,2929.0,8020.0,5.476271765107545,0.0018703113951870028,0.0016961748810843922,0.8701868195405915,-0.1151083205509429,0.0,3.0,-0.1151083205509429,10.087079947264769,8.631541834988868,0.0009336707914089699,294.0,267.0,4.595238095238095,0.14232209737827714,0.3037542662116041,2838.0,8020.0,5.0,3.0,1.0,1.0,0.0,2.0,,1.0,0.0003740648379052369,0.00012468827930174563,0.0,0.3333333333333333,0.3333333333333333,0.0,1.0,1.0,1.0,1.0,1.0
221,2929.0,8020.0,5.476271765107545,0.0018703113951870028,0.0016961748810843922,0.8701868195405915,-0.1151083205509429,0.0,3.0,-0.1151083205509429,10.087079947264769,8.631541834988868,0.0009336707914089699,294.0,267.0,4.595238095238095,0.14232209737827714,0.3037542662116041,2838.0,8020.0,5.0,3.0,1.0,1.0,0.0,2.0,,1.0,0.0003740648379052369,0.00012468827930174563,0.0,0.3333333333333333,0.3333333333333333,0.0,1.0,1.0,1.0,1.0,1.0
222,2929.0,8020.0,5.476271765107545,0.0018703113951870028,0.0016961748810843922,0.8701868195405915,-0.1151083205509429,0.0,3.0,-0.1151083205509429,10.087079947264769,8.631541834988868,0.0009336707914089699,294.0,267.0,4.595238095238095,0.14232209737827714,0.3037542662116041,2838.0,8020.0,5.0,3.0,1.0,1.0,0.0,2.0,,1.0,0.0003740648379052369,0.00012468827930174563,0.0,0.3333333333333333,0.3333333333333333,0.0,1.0,1.0,1.0,1.0,1.0
223,2929.0,8020.0,5.476271765107545,0.0018703113951870028,0.0016961748810843922,0.8701868195405915,-0.1151083205509429,0.0,3.0,-0.1151083205509429,10.087079947264769,8.631541834988868,0.0009336707914089699,294.0,267.0,4.595238095238095,0.14232209737827714,0.3037542662116041,2838.0,8020.0,5.0,3.0,1.0,1.0,0.0,2.0,,1.0,0.0003740648379052369,0.00012468827930174563,0.0,0.3333333333333333,0.3333333333333333,0.0,1.0,1.0,1.0,1.0,1.0
224,2929.0,8020.0,5.476271765107545,0.0018703113951870028,0.0016961748810843922,0.8701868195405915,-0.1151083205509429,0.0,3.0,-0.1151083205509429,10.087079947264769,8.631541834988868,0.0009336707914089699,294.0,267.0,4.595238095238095,0.14232209737827714,0.3037542662116041,2838.0,8020.0,5.0,3.0,1.0,1.0,0.0,2.0,,1.0,0.0003740648379052369,0.00012468827930174563,0.0,0.3333333333333333,0.3333333333333333,0.0,1.0,1.0,1.0,1.0,1.0
225,2929.0,8020.0,5.476271765107545,0.0018703113951870028,0.0016961748810843922,0.8701868195405915,-0.1151083205509429,0.0,3.0,-0.1151083205509429,10.087079947264769,8.631541834988868,0.0009336707914089699,294.0,267.0,4.595238095238095,0.14232209737827714,0.3037542662116041,2838.0,8020.0,5.0,3.0,1.0,1.0,0.0,2.0,,1.0,0.0003740648379052369,0.00012468827930174563,0.0,0.3333333333333333,0.3333333333333333,0.0,1.0,1.0,1.0,1.0,1.0
226,2929.0,8020.0,5.476271765107545,0.0018703113951870028,0.0016961748810843922,0.8701868195405915,-0.1151083205509429,0.0,3.0,-0.1151083205509429,10.087079947264769,8.631541834988868,0.0009336707914089699,294.0,267.0,4.595238095238095,0.14232209737827714,0.3037542662116041,2838.0,8020.0,5.0,3.0,1.0,1.0,0.0,2.0,,1.0,0.0003740648379052369,0.00012468827930174563,0.0,0.3333333333333333,0.3333333333333333,0.0,1.0,1.0,1.0,1.0,1.0
227,2929.0,8020.0,5.476271765107545,0.0018703113951870028,0.0016961748810843922,0.8701868195405915,-0.1151083205509429,0.0,3.0,-0.1151083205509429,10.087079947264769,8.631541834988868,0.0009336707914089699,294.0,267.0,4.595238095238095,0.14232209737827714,0.3037542662116041,2838.0,8020.0,5.0,3.0,1.0,1.0,0.0,2.0,,1.0,0.0003740648379052369,0.00012468827930174563,0.0,0.3333333333333333,0.3333333333333333,0.0,1.0,1.0,1.0,1.0,1.0
228,2929.0,8020.0,5.476271765107545,0.0018703113951870028,0.0016961748810843922,0.8701868195405915,-0.1151083205509429,0.0,3.0,-0.1151083205509429,10.087079947264769,8.631541834988868,0.0009336707914089699,294.0,267.0,4.595238095238095,0.14232209737827714,0.3037542662116041,2838.0,8020.0,5.0,3.0,1.0,1.0,0.0,2.0,,1.0,0.0003740648379052369,0.00012468827930174563,0.0,0.3333333333333333,0.3333333333333333,0.0,1.0,1.0,1.0,1.0,1.0
229,2929.0,8020.0,5.476271765107545,0.0018703113951870028,0.0016961748810843922,0.8701868195405915,-0.1151083205509429,0.0,3.0,-0.1151083205509429,10.087079947264769,8.631541834988868,0.0009336707914089699,294.0,267.0,4.595238095238095,0.14232209737827714,0.3037542662116041,2838.0,8020.0,5.0,3.0,1.0,1.0,0.0,2.0,,1.0,0.0003740648379052369,0.00012468827930174563,0.0,0.3333333333333333,0.3333333333333333,0.0,1.0,1.0,1.0,1.0,1.0
230,2929.0,8020.0,5.476271765107545,0.0018703113951870028,0.0016961748810843922,0.8701868195405915,-0.1151083205509429,0.0,3.0,-0.1151083205509429,10.087079947264769,8.631541834988868,0.0009336707914089699,294.0,267.0,4.595238095238095,0.14232209737827714,0.3037542662116041,2838.0,8020.0,5.0,3.0,1.0,1.0,0.0,2.0,,1.0,0.0003740648379052369,0.00012468827930174563,0.0,0.3333333333333333,0.3333333333333333,0.0,1.0,1.0,1.0,1.0,1.0
231,2929.0,8020.0,5.476271765107545,0.0018703113951870028,0.0016961748810843922,0.8701868195405915,-0.1151083205509429,0.0,3.0,-0.1151083205509429,10.087079947264769,8.631541834988868,0.0009336707914089699,294.0,267.0,4.595238095238095,0.14232209737827714,0.3037542662116041,2838.0,8020.0,5.0,3.0,1.0,1.0,0.0,2.0,,1.0,0.0003740648379052369,0.00012468827930174563,0.0,0.3333333333333333,0.3333333333333333,0.0,1.0,1.0,1.0,1.0,1.0
232,2929.0,8020.0,5.476271765107545,0.0018703113951870028,0.0016961748810843922,0.8701868195405915,-0.1151083205509429,0.0,3.0,-0.1151083205509429,10.087079947264769,8.631541834988868,0.0009336707914089699,294.0,267.0,4.595238095238095,0.14232209737827714,0.3037542662116041,2838.0,8020.0,5.0,3.0,1.0,1.0,0.0,2.0,,1.0,0.0003740648379052369,0.00012468827930174563,0.0,0.3333333333333333,0.3333333333333333,0.0,1.0,1.0,1.0,1.0,1.0
233,2929.0,8020.0,5.476271765107545,0.0018703113951870028,0.0016961748810843922,0.8701868195405915,-0.1151083205509429,0.0,3.0,-0.1151083205509429,10.087079947264769,8.631541834988868,0.0009336707914089699,294.0,267.0,4.595238095238095,0.14232209737827714,0.3037542662116041,2838.0,8020.0,5.0,3.0,1.0,1.0,0.0,2.0,,1.0,0.0003740648379052369,0.00012468827930174563,0.0,0.3333333333333333,0.3333333333333333,0.0,1.0,1.0,1.0,1.0,1.0
234,2929.0,8020.0,5.476271765107545,0.0018703113951870028,0.0016961748810843922,0.8701868195405915,-0.1151083205509429,0.0,3.0,-0.1151083205509429,10.087079947264769,8.631541834988868,0.0009336707914089699,294.0,267.0,4.595238095238095,0.14232209737827714,0.3037542662116041,2838.0,8020.0,5.0,3.0,1.0,1.0,0.0,2.0,,1.0,0.0003740648379052369,0.00012468827930174563,0.0,0.3333333333333333,0.3333333333333333,0.0,1.0,1.0,1.0,1.0,1.0
235,2929.0,8020.0,5.476271765107545,0.0018703113951870028,0.0016961748810843922,0.8701868195405915,-0.1151083205509429,0.0,3.0,-0.1151083205509429,10.087079947264769,8.631541834988868,0.0009336707914089699,294.0,267.0,4.595238095238095,0.14232209737827714,0.3037542662116041,2838.0,8020.0,5.0,3.0,1.0,1.0,0.0,2.0,,1.0,0.0003740648379052369,0.00012468827930174563,0.0,0.3333333333333333,0.3333333333333333,0.0,1.0,1.0,1.0,1.0,1.0
236,2929.0,8020.0,5.476271765107545,0.0018703113951870028,0.0016961748810843922,0.8701868195405915,-0.1151083205509429,0.0,3.0,-0.1151083205509429,10.087079947264769,8.631541834988868,0.0009336707914089699,294.0,267.0,4.595238095238095,0.14232209737827714,0.3037542662116041,2838.0,8020.0,5.0,3.0,1.0,1.0,0.0,2.0,,1.0,0.0003740648379052369,0.00012468827930174563,0.0,0.3333333333333333,0.3333333333333333,0.0,1.0,1.0,1.0,1.0,1.0
237,2929.0,8020.0,5.476271765107545,0.0018703113951870028,0.0016961748810843922,0.8701868195405915,-0.1151083205509429,0.0,3.0,-0.1151083205509429,10.087079947264769,8.631541834988868,0.0009336707914089699,294.0,267.0,4.595238095238095,0.14232209737827714,0.3037542662116041,2838.0,8020.0,5.0,3.0,1.0,1.0,0.0,2.0,,1.0,0.0003740648379052369,0.00012468827930174563,0.0,0.3333333333333333,0.3333333333333333,0.0,1.0,1.0,1.0,1.0,1.0
238,2929.0,8020.0,5.476271765107545,0.0018703113951870028,0.0016961748810843922,0.8701868195405915,-0.1151083205509429,0.0,3.0,-0.1151083205509429,10.087079947264769,8.631541834988868,0.0009336707914089699,294.0,267.0,4.595238095238095,0.14232209737827714,0.3037542662116041,2838.0,8020.0,5.0,3.0,1.0,1.0,0.0,2.0,,1.0,0.0003740648379052369,0.00012468827930174563,0.0,0.3333333333333333,0.3333333333333333,0.0,1.0,1.0,1.0,1.0,1.0
239,2929.0,8020.0,5.476271765107545,0.0018703113951870028,0.0016961748810843922,0.8701868195405915,-0.1151083205509429,0.0,3.0,-0.1151083205509429,10.087079947264769,8.631541834988868,0.0009336707914089699,294.0,267.0,4.595238095238095,0.14232209737827714,0.3037542662116041,2838.0,8020.0,5.0,3.0,1.0,1.0,0.0,2.0,,1.0,0.0003740648379052369,0.00012468827930174563,0.0,0.3333333333333333,0.3333333333333333,0.0,1.0,1.0,1.0,1.0,1.0
240,2929.0,8020.0,5.476271765107545,0.0018703113951870028,0.0016961748810843922,0.8701868195405915,-0.1151083205509429,0.0,3.0,-0.1151083205509429,10.087079947264769,8.631541834988868,0.0009336707914089699,294.0,267.0,4.595238095238095,0.14232209737827714,0.3037542662116041,2838.0,8020.0,5.0,3.0,1.0,1.0,0.0,2.0,,1.0,0.0003740648379052369,0.00012468827930174563,0.0,0.3333333333333333,0.3333333333333333,0.0,1.0,1.0,1.0,1.0,1.0
241,2929.0,8020.0,5.476271765107545,0.0018703113951870028,0.0016961748810843922,0.8701868195405915,-0.1151083205509429,0.0,3.0,-0.1151083205509429,10.087079947264769,8.631541834988868,0.0009336707914089699,294.0,267.0,4.595238095238095,0.14232209737827714,0.3037542662116041,2838.0,8020.0,5.0,3.0,1.0,1.0,0.0,2.0,,1.0,0.0003740648379052369,0.00012468827930174563,0.0,0.3333333333333333,0.3333333333333333,0.0,1.0,1.0,1.0,1.0,1.0
242,2929.0,8020.0,5.476271765107545,0.0018703113951870028,0.0016961748810843922,0.8701868195405915,-0.1151083205509429,0.0,3.0,-0.1151083205509429,10.087079947264769,8.631541834988868,0.0009336707914089699,294.0,267.0,4.595238095238095,0.14232209737827714,0.3037542662116041,2838.0,8020.0,5.0,3.0,1.0,1.0,0.0,2.0,,1.0,0.0003740648379052369,0.00012468827930174563,0.0,0.3333333333333333,0.3333333333333333,0.0,1.0,1.0,1.0,1.0,1.0
243,2929.0,8020.0,5.476271765107545,0.0018703113951870028,0.0016961748810843922,0.8701868195405915,-0.1151083205509429,0.0,3.0,-0.1151083205509429,10.087079947264769,8.631541834988868,0.0009336707914089699,294.0,267.0,4.595238095238095,0.14232209737827714,0.3037542662116041,2838.0,8020.0,5.0,3.0,1.0,1.0,0.0,2.0,,1.0,0.0003740648379052369,0.00012468827930174563,0.0,0.3333333333333333,0.3333333333333333,0.0,1.0,1.0,1.0,1.0,1.0
244,2929.0,8020.0,5.476271765107545,0.0018703113951870028,0.0016961748810843922,0.8701868195405915,-0.1151083205509429,0.0,3.0,-0.1151083205509429,10.087079947264769,8.631541834988868,0.0009336707914089699,294.0,267.0,4.595238095238095,0.14232209737827714,0.3037542662116041,2838.0,8020.0,5.0,3.0,1.0,1.0,0.0,2.0,,1.0,0.0003740648379052369,0.00012468827930174563,0.0,0.3333333333333333,0.3333333333333333,0.0,1.0,1.0,1.0,1.0,1.0
245,2929.0,8020.0,5.476271765107545,0.0018703113951870028,0.0016961748810843922,0.8701868195405915,-0.1151083205509429,0.0,3.0,-0.1151083205509429,10.087079947264769,8.631541834988868,0.0009336707914089699,294.0,267.0,4.595238095238095,0.14232209737827714,0.3037542662116041,2838.0,8020.0,5.0,3.0,1.0,1.0,0.0,2.0,,1.0,0.0003740648379052369,0.00012468827930174563,0.0,0.3333333333333333,0.3333333333333333,0.0,1.0,1.0,1.0,1.0,1.0
246,2929.0,8020.0,5.476271765107545,0.0018703113951870028,0.0016961748810843922,0.8701868195405915,-0.1151083205509429,0.0,3.0,-0.1151083205509429,10.087079947264769,8.631541834988868,0.0009336707914089699,294.0,267.0,4.595238095238095,0.14232209737827714,0.3037542662116041,2838.0,8020.0,5.0,3.0,1.0,1.0,0.0,2.0,,1.0,0.0003740648379052369,0.00012468827930174563,0.0,0.3333333333333333,0.3333333333333333,0.0,1.0,1.0,1.0,1.0,1.0
247,2929.0,8020.0,5.476271765107545,0.0018703113951870028,0.0016961748810843922,0.8701868195405915,-0.1151083205509429,0.0,3.0,-0.1151083205509429,10.087079947264769,8.631541834988868,0.0009336707914089699,294.0,267.0,4.595238095238095,0.14232209737827714,0.3037542662116041,2838.0,8020.0,5.0,3.0,1.0,1.0,0.0,2.0,,1.0,0.0003740648379052369,0.00012468827930174563,0.0,0.3333333333333333,0.3333333333333333,0.0,1.0,1.0,1.0,1.0,1.0
248,2929.0,8020.0,5.476271765107545,0.0018703113951870028,0.0016961748810843922,0.8701868195405915,-0.1151083205509429,0.0,3.0,-0.1151083205509429,10.087079947264769,8.631541834988868,0.0009336707914089699,294.0,267.0,4.595238095238095,0.14232209737827714,0.3037542662116041,2838.0,8020.0,5.0,3.0,1.0,1.0,0.0,2.0,,1.0,0.0003740648379052369,0.00012468827930174563,0.0,0.3333333333333333,0.3333333333333333,0.0,1.0,1.0,1.0,1.0,1.0
249,2929.0,8020.0,5.476271765107545,0.0018703113951870028,0.0016961748810843922,0.8701868195405915,-0.1151083205509429,0.0,3.0,-0.1151083205509429,10.087079947264769,8.631541834988868,0.0009336707914089699,294.0,267.0,4.595238095238095,0.14232209737827714,0.3037542662116041,2838.0,8020.0,5.0,3.0,1.0,1.0,0.0,2.0,,1.0,0.0003740648379052369,0.00012468827930174563,0.0,0.3333333333333333,0.3333333333333333,0.0,1.0,1.0,1.0,1.0,1.0
250,2929.0,8020.0,5.476271765107545,0.0018703113951870028,0.0016961748810843922,0.8701868195405915,-0.1151083205509429,0.0,3.0,-0.1151083205509429,10.087079947264769,8.631541834988868,0.0009336707914089699,294.0,267.0,4.595238095238095,0.14232209737827714,0.3037542662116041,2838.0,8020.0,5.0,3.0,1.0,1.0,0.0,2.0,,1.0,0.0003740648379052369,0.00012468827930174563,0.0,0.3333333333333333,0.3333333333333333,0.0,1.0,1.0,1.0,1.0,1.0
251,2929.0,8020.0,5.476271765107545,0.0018703113951870028,0.0016961748810843922,0.8701868195405915,-0.1151083205509429,0.0,3.0,-0.1151083205509429,10.087079947264769,8.631541834988868,0.0009336707914089699,294.0,267.0,4.595238095238095,0.14232209737827714,0.3037542662116041,2838.0,8020.0,5.0,3.0,1.0,1.0,0.0,2.0,,1.0,0.0003740648379052369,0.00012468827930174563,0.0,0.3333333333333333,0.3333333333333333,0.0,1.0,1.0,1.0,1.0,1.0
252,2929.0,8020.0,5.476271765107545,0.0018703113951870028,0.0016961748810843922,0.8701868195405915,-0.1151083205509429,0.0,3.0,-0.1151083205509429,10.087079947264769,8.631541834988868,0.0009336707914089699,294.0,267.0,4.595238095238095,0.14232209737827714,0.3037542662116041,2838.0,8020.0,5.0,3.0,1.0,1.0,0.0,2.0,,1.0,0.0003740648379052369,0.00012468827930174563,0.0,0.3333333333333333,0.3333333333333333,0.0,1.0,1.0,1.0,1.0,1.0
253,2929.0,8020.0,5.476271765107545,0.0018703113951870028,0.0016961748810843922,0.8701868195405915,-0.1151083205509429,0.0,3.0,-0.1151083205509429,10.087079947264769,8.631541834988868,0.0009336707914089699,294.0,267.0,4.595238095238095,0.14232209737827714,0.3037542662116041,2838.0,8020.0,5.0,3.0,1.0,1.0,0.0,2.0,,1.0,0.0003740648379052369,0.00012468827930174563,0.0,0.3333333333333333,0.3333333333333333,0.0,1.0,1.0,1.0,1.0,1.0
254,2929.0,8020.0,5.476271765107545,0.0018703113951870028,0.0016961748810843922,0.8701868195405915,-0.1151083205509429,0.0,3.0,-0.1151083205509429,10.087079947264769,8.631541834988868,0.0009336707914089699,294.0,267.0,4.595238095238095,0.14232209737827714,0.3037542662116041,2838.0,8020.0,5.0,3.0,1.0,1.0,0.0,2.0,,1.0,0.0003740648379052369,0.00012468827930174563,0.0,0.3333333333333333,0.3333333333333333,0.0,1.0,1.0,1.0,1.0,1.0
255,2929.0,8020.0,5.476271765107545,0.0018703113951870028,0.0016961748810843922,0.8701868195405915,-0.1151083205509429,0.0,3.0,-0.1151083205509429,10.087079947264769,8.631541834988868,0.0009336707914089699,294.0,267.0,4.595238095238095,0.14232209737827714,0.3037542662116041,2838.0,8020.0,5.0,3.0,1.0,1.0,0.0,2.0,,1.0,0.0003740648379052369,0.00012468827930174563,0.0,0.3333333333333333,0.3333333333333333,0.0,1.0,1.0,1.0,1.0,1.0
256,2929.0,8020.0,5.476271765107545,0.0018703113951870028,0.0016961748810843922,0.8701868195405915,-0.1151083205509429,0.0,3.0,-0.1151083205509429,10.087079947264769,8.631541834988868,0.0009336707914089699,294.0,267.0,4.595238095238095,0.14232209737827714,0.3037542662116041,2838.0,8020.0,5.0,3.0,1.0,1.0,0.0,2.0,,1.0,0.0003740648379052369,0.00012468827930174563,0.0,0.3333333333333333,0.3333333333333333,0.0,1.0,1.0,1.0,1.0,1.0
257,2929.0,8020.0,5.476271765107545,0.0018703113951870028,0.0016961748810843922,0.8701868195405915,-0.1151083205509429,0.0,3.0,-0.1151083205509429,10.087079947264769,8.631541834988868,0.0009336707914089699,294.0,267.0,4.595238095238095,0.14232209737827714,0.3037542662116041,2838.0,8020.0,5.0,3.0,1.0,1.0,0.0,2.0,,1.0,0.0003740648379052369,0.00012468827930174563,0.0,0.3333333333333333,0.3333333333333333,0.0,1.0,1.0,1.0,1.0,1.0
258,2929.0,8020.0,5.476271765107545,0.0018703113951870028,0.0016961748810843922,0.8701868195405915,-0.1151083205509429,0.0,3.0,-0.1151083205509429,10.087079947264769,8.631541834988868,0.0009336707914089699,294.0,267.0,4.595238095238095,0.14232209737827714,0.3037542662116041,2838.0,8020.0,5.0,3.0,1.0,1.0,0.0,2.0,,1.0,0.0003740648379052369,0.00012468827930174563,0.0,0.3333333333333333,0.3333333333333333,0.0,1.0,1.0,1.0,1.0,1.0
259,2929.0,8020.0,5.476271765107545,0.0018703113951870028,0.0016961748810843922,0.8701868195405915,-0.1151083205509429,0.0,3.0,-0.1151083205509429,10.087079947264769,8.631541834988868,0.0009336707914089699,294.0,267.0,4.595238095238095,0.14232209737827714,0.3037542662116041,2838.0,8020.0,5.0,3.0,1.0,1.0,0.0,2.0,,1.0,0.0003740648379052369,0.00012468827930174563,0.0,0.3333333333333333,0.3333333333333333,0.0,1.0,1.0,1.0,1.0,1.0
260,2929.0,8020.0,5.476271765107545,0.0018703113951870028,0.0016961748810843922,0.8701868195405915,-0.1151083205509429,0.0,3.0,-0.1151083205509429,10.087079947264769,8.631541834988868,0.0009336707914089699,294.0,267.0,4.595238095238095,0.14232209737827714,0.3037542662116041,2838.0,8020.0,5.0,3.0,1.0,1.0,0.0,2.0,,1.0,0.0003740648379052369,0.00012468827930174563,0.0,0.3333333333333333,0.3333333333333333,0.0,1.0,1.0,1.0,1.0,1.0
261,2929.0,8020.0,5.476271765107545,0.0018703113951870028,0.0016961748810843922,0.8701868195405915,-0.1151083205509429,0.0,3.0,-0.1151083205509429,10.087079947264769,8.631541834988868,0.0009336707914089699,294.0,267.0,4.595238095238095,0.14232209737827714,0.3037542662116041,2838.0,8020.0,5.0,3.0,1.0,1.0,0.0,2.0,,1.0,0.0003740648379052369,0.00012468827930174563,0.0,0.3333333333333333,0.3333333333333333,0.0,1.0,1.0,1.0,1.0,1.0
262,2929.0,8020.0,5.476271765107545,0.0018703113951870028,0.0016961748810843922,0.8701868195405915,-0.1151083205509429,0.0,3.0,-0.1151083205509429,10.087079947264769,8.631541834988868,0.0009336707914089699,294.0,267.0,4.595238095238095,0.14232209737827714,0.3037542662116041,2838.0,8020.0,5.0,3.0,1.0,1.0,0.0,2.0,,1.0,0.0003740648379052369,0.00012468827930174563,0.0,0.3333333333333333,0.3333333333333333,0.0,1.0,1.0,1.0,1.0,1.0
263,2929.0,8020.0,5.476271765107545,0.0018703113951870028,0.0016961748810843922,0.8701868195405915,-0.1151083205509429,0.0,3.0,-0.1151083205509429,10.087079947264769,8.631541834988868,0.0009336707914089699,294.0,267.0,4.595238095238095,0.14232209737827714,0.3037542662116041,2838.0,8020.0,5.0,3.0,1.0,1.0,0.0,2.0,,1.0,0.0003740648379052369,0.00012468827930174563,0.0,0.3333333333333333,0.3333333333333333,0.0,1.0,1.0,1.0,1.0,1.0
264,2929.0,8020.0,5.476271765107545,0.0018703113951870028,0.0016961748810843922,0.8701868195405915,-0.1151083205509429,0.0,3.0,-0.1151083205509429,10.087079947264769,8.631541834988868,0.0009336707914089699,294.0,267.0,4.595238095238095,0.14232209737827714,0.3037542662116041,2838.0,8020.0,5.0,3.0,1.0,1.0,0.0,2.0,,1.0,0.0003740648379052369,0.00012468827930174563,0.0,0.3333333333333333,0.3333333333333333,0.0,1.0,1.0,1.0,1.0,1.0
265,2929.0,8020.0,5.476271765107545,0.0018703113951870028,0.0016961748810843922,0.8701868195405915,-0.1151083205509429,0.0,3.0,-0.1151083205509429,10.087079947264769,8.631541834988868,0.0009336707914089699,294.0,267.0,4.595238095238095,0.14232209737827714,0.3037542662116041,2838.0,8020.0,5.0,3.0,1.0,1.0,0.0,2.0,,1.0,0.0003740648379052369,0.00012468827930174563,0.0,0.3333333333333333,0.3333333333333333,0.0,1.0,1.0,1.0,1.0,1.0
266,2929.0,8020.0,5.476271765107545,0.0018703113951870028,0.0016961748810843922,0.8701868195405915,-0.1151083205509429,0.0,3.0,-0.1151083205509429,10.087079947264769,8.631541834988868,0.0009336707914089699,294.0,267.0,4.595238095238095,0.14232209737827714,0.3037542662116041,2838.0,8020.0,5.0,3.0,1.0,1.0,0.0,2.0,,1.0,0.0003740648379052369,0.00012468827930174563,0.0,0.3333333333333333,0.3333333333333333,0.0,1.0,1.0,1.0,1.0,1.0
267,2929.0,8020.0,5.476271765107545,0.0018703113951870028,0.0016961748810843922,0.8701868195405915,-0.1151083205509429,0.0,3.0,-0.1151083205509429,10.087079947264769,8.631541834988868,0.0009336707914089699,294.0,267.0,4.595238095238095,0.14232209737827714,0.3037542662116041,2838.0,8020.0,5.0,3.0,1.0,1.0,0.0,2.0,,1.0,0.0003740648379052369,0.00012468827930174563,0.0,0.3333333333333333,0.3333333333333333,0.0,1.0,1.0,1.0,1.0,1.0
268,2929.0,8020.0,5.476271765107545,0.0018703113951870028,0.0016961748810843922,0.8701868195405915,-0.1151083205509429,0.0,3.0,-0.1151083205509429,10.087079947264769,8.631541834988868,0.0009336707914089699,294.0,267.0,4.595238095238095,0.14232209737827714,0.3037542662116041,2838.0,8020.0,5.0,3.0,1.0,1.0,0.0,2.0,,1.0,0.0003740648379052369,0.00012468827930174563,0.0,0.3333333333333333,0.3333333333333333,0.0,1.0,1.0,1.0,1.0,1.0
269,2929.0,8020.0,5.476271765107545,0.0018703113951870028,0.0016961748810843922,0.8701868195405915,-0.1151083205509429,0.0,3.0,-0.1151083205509429,10.087079947264769,8.631541834988868,0.0009336707914089699,294.0,267.0,4.595238095238095,0.14232209737827714,0.3037542662116041,2838.0,8020.0,5.0,3.0,1.0,1.0,0.0,2.0,,1.0,0.0003740648379052369,0.00012468827930174563,0.0,0.3333333333333333,0.3333333333333333,0.0,1.0,1.0,1.0,1.0,1.0
270,2929.0,8020.0,5.476271765107545,0.0018703113951870028,0.0016961748810843922,0.8701868195405915,-0.1151083205509429,0.0,3.0,-0.1151083205509429,10.087079947264769,8.631541834988868,0.0009336707914089699,294.0,267.0,4.595238095238095,0.14232209737827714,0.3037542662116041,2838.0,8020.0,5.0,3.0,1.0,1.0,0.0,2.0,,1.0,0.0003740648379052369,0.00012468827930174563,0.0,0.3333333333333333,0.3333333333333333,0.0,1.0,1.0,1.0,1.0,1.0
271,2929.0,8020.0,5.476271765107545,0.0018703113951870028,0.0016961748810843922,0.8701868195405915,-0.1151083205509429,0.0,3.0,-0.1151083205509429,10.087079947264769,8.631541834988868,0.0009336707914089699,294.0,267.0,4.595238095238095,0.14232209737827714,0.3037542662116041,2838.0,8020.0,5.0,3.0,1.0,1.0,0.0,2.0,,1.0,0.0003740648379052369,0.00012468827930174563,0.0,0.3333333333333333,0.3333333333333333,0.0,1.0,1.0,1.0,1.0,1.0
272,2929.0,8020.0,5.476271765107545,0.0018703113951870028,0.0016961748810843922,0.8701868195405915,-0.1151083205509429,0.0,3.0,-0.1151083205509429,10.087079947264769,8.631541834988868,0.0009336707914089699,294.0,267.0,4.595238095238095,0.14232209737827714,0.3037542662116041,2838.0,8020.0,5.0,3.0,1.0,1.0,0.0,2.0,,1.0,0.0003740648379052369,0.00012468827930174563,0.0,0.3333333333333333,0.3333333333333333,0.0,1.0,1.0,1.0,1.0,1.0
273,2929.0,8020.0,5.476271765107545,0.0018703113951870028,0.0016961748810843922,0.8701868195405915,-0.1151083205509429,0.0,3.0,-0.1151083205509429,10.087079947264769,8.631541834988868,0.0009336707914089699,294.0,267.0,4.595238095238095,0.14232209737827714,0.3037542662116041,2838.0,8020.0,5.0,3.0,1.0,1.0,0.0,2.0,,1.0,0.0003740648379052369,0.00012468827930174563,0.0,0.3333333333333333,0.3333333333333333,0.0,1.0,1.0,1.0,1.0,1.0
274,2929.0,8020.0,5.476271765107545,0.0018703113951870028,0.0016961748810843922,0.8701868195405915,-0.1151083205509429,0.0,3.0,-0.1151083205509429,10.087079947264769,8.631541834988868,0.0009336707914089699,294.0,267.0,4.595238095238095,0.14232209737827714,0.3037542662116041,2838.0,8020.0,5.0,3.0,1.0,1.0,0.0,2.0,,1.0,0.0003740648379052369,0.00012468827930174563,0.0,0.3333333333333333,0.3333333333333333,0.0,1.0,1.0,1.0,1.0,1.0
275,2929.0,8020.0,5.476271765107545,0.0018703113951870028,0.0016961748810843922,0.8701868195405915,-0.1151083205509429,0.0,3.0,-0.1151083205509429,10.087079947264769,8.631541834988868,0.0009336707914089699,294.0,267.0,4.595238095238095,0.14232209737827714,0.3037542662116041,2838.0,8020.0,5.0,3.0,1.0,1.0,0.0,2.0,,1.0,0.0003740648379052369,0.00012468827930174563,0.0,0.3333333333333333,0.3333333333333333,0.0,1.0,1.0,1.0,1.0,1.0
276,2929.0,8020.0,5.476271765107545,0.0018703113951870028,0.0016961748810843922,0.8701868195405915,-0.1151083205509429,0.0,3.0,-0.1151083205509429,10.087079947264769,8.631541834988868,0.0009336707914089699,294.0,267.0,4.595238095238095,0.14232209737827714,0.3037542662116041,2838.0,8020.0,5.0,3.0,1.0,1.0,0.0,2.0,,1.0,0.0003740648379052369,0.00012468827930174563,0.0,0.3333333333333333,0.3333333333333333,0.0,1.0,1.0,1.0,1.0,1.0
