Turn,System llh,MLM llh,USR DLcontext,USR DLfact,Overall Human Rating,Interesting,Engaging,Specific,Relevant,Correct,Semantically Appropriate,Understandable,Fluent,Total nodes,Total edges,Average degree,Average degree centrality,Average closeness,Average degree connectivity,Average assortativity,Average node connectivity,Number of components,Number of strong components,Centrality entropy,Closeness entropy,Sparseness,Total classes,Total properties,Total instances,Total entities,Property class ratio,Average population,Class property ratio,Attribute richness,Inheritance richness,Relationship richness,Total concept assertions,Total role assertions,Total general concept inclusions,Total axioms,Total aBox axioms,Total tBox axioms,Total triples,Total world instances,Total statements,Total perspectives,Total mentions,Total conflicts,Total sources,Total interactions,Total utterances,Ratio statement to triples,Ratio perspectives to triples,Ratio conflicts to triples,Ratio perspectives to statements,Ratio mentions to statements,Ratio conflicts to statements,Average perspectives per statement,Average mentions per statement,Average turns per interaction,Average statements per source,Average perspectives per source
0.0,0.14410678108696218,0.6100746191130397,0.001329569025,0.81609744,,,,,,,,,,2870.0,7906.0,5.509407665505226,0.0019203233410614242,0.0017210902516714033,0.8596768057594533,-0.11746526166008,0.0,3.0,-0.11746526166008,10.048989987248376,2.727609284582613,0.000958613070451262,294.0,267.0,1306.0,1600.0,0.9081632653061225,4.442176870748299,1.101123595505618,0.14232209737827714,2.292134831460674,0.3037542662116041,1306.0,456.0,644.0,2769.0,1762.0,1007.0,7906.0,0.0,0.0,0.0,0.0,0.0,0.0,0.0,0.0,0.0,0.0,0.0,0.0,0.0,0.0,0.0,0.0,0.0,0.0,0.0
1.0,0.0,0.3809813859269638,0.68163854,0.796168,,,,,,,,,,2870.0,7906.0,5.509407665505226,0.0019203233410614242,0.0017210902516714033,0.8596768057594533,-0.11746526166008,0.0,3.0,-0.11746526166008,10.048989987248376,2.727609284582613,0.000958613070451262,294.0,267.0,1306.0,1600.0,0.9081632653061225,4.442176870748299,1.101123595505618,0.14232209737827714,2.292134831460674,0.3037542662116041,1306.0,456.0,644.0,2769.0,1762.0,1007.0,7906.0,0.0,0.0,0.0,0.0,0.0,0.0,,0.0,0.0,0.0,0.0,0.0,0.0,0.0,0.0,0.0,0.0,0.0,0.0
2.0,0.25509378490757467,0.5959963050866223,0.99716645,0.74840045,,,,,,,,,,2870.0,7906.0,5.509407665505226,0.0019203233410614242,0.0017210902516714033,0.8596768057594533,-0.11746526166008,0.0,3.0,-0.11746526166008,10.048989987248376,2.727609284582613,0.000958613070451262,294.0,267.0,1306.0,1600.0,0.9081632653061225,4.442176870748299,1.101123595505618,0.14232209737827714,2.292134831460674,0.3037542662116041,1306.0,456.0,644.0,2769.0,1762.0,1007.0,7906.0,0.0,0.0,0.0,0.0,0.0,0.0,,0.0,0.0,0.0,0.0,0.0,0.0,0.0,0.0,0.0,0.0,0.0,0.0
3.0,0.0,0.0967779530518732,0.9857895,0.73552406,,,,,,,,,,2929.0,8021.0,5.476954592010925,0.0018705446010966278,0.0016962879805778137,0.8700331834873309,-0.11521514267001977,0.0,3.0,-0.11521514267001977,10.087153396139907,2.735172100466897,0.0009337873545539647,294.0,267.0,1352.0,1646.0,0.9081632653061225,4.598639455782313,1.101123595505618,0.14232209737827714,2.292134831460674,0.3037542662116041,1352.0,481.0,644.0,2840.0,1833.0,1007.0,8021.0,5.0,3.0,1.0,1.0,0.0,2.0,0.0,1.0,0.00037401820221917467,0.00012467273407305821,0.0,0.3333333333333333,0.3333333333333333,0.0,1.0,1.0,1.0,1.0,1.0
4.0,0.5643311030290685,0.7710111610768735,0.98693943,0.75663704,3.0,2.0,3.0,2.0,3.0,3.0,3.0,3.0,3.0,2929.0,8021.0,5.476954592010925,0.0018705446010966278,0.0016962879805778137,0.8700331834873309,-0.11521514267001977,0.0,3.0,-0.11521514267001977,10.087153396139907,2.735172100466897,0.0009337873545539647,294.0,267.0,1352.0,1646.0,0.9081632653061225,4.598639455782313,1.101123595505618,0.14232209737827714,2.292134831460674,0.3037542662116041,1352.0,481.0,644.0,2840.0,1833.0,1007.0,8021.0,5.0,3.0,1.0,1.0,0.0,2.0,,1.0,0.00037401820221917467,0.00012467273407305821,0.0,0.3333333333333333,0.3333333333333333,0.0,1.0,1.0,1.0,1.0,1.0
5.0,0.0,0.3109719700898711,0.057770118,0.40660393,,,,,,,,,,2948.0,8070.0,5.474898236092266,0.0018577869820469173,0.0016972089230273906,0.8748800006965537,-0.11552919467878778,0.0,3.0,-0.11552919467878778,10.101375595962532,2.736829076661362,0.0009274277434831517,294.0,267.0,1367.0,1661.0,0.9081632653061225,4.649659863945578,1.101123595505618,0.14232209737827714,2.292134831460674,0.3037542662116041,1367.0,501.0,644.0,2875.0,1868.0,1007.0,8070.0,6.0,4.0,2.0,2.0,0.0,2.0,0.0,2.0,0.0004956629491945477,0.00024783147459727387,0.0,0.5,0.5,0.0,1.0,1.0,2.0,2.0,2.0
6.0,0.5307367729628776,0.778833177989167,0.9983044,0.067590795,4.0,3.25,3.75,3.25,3.5,4.0,4.0,4.25,4.25,2948.0,8070.0,5.474898236092266,0.0018577869820469173,0.0016972089230273906,0.8748800006965537,-0.11552919467878778,0.0,3.0,-0.11552919467878778,10.101375595962532,2.736829076661362,0.0009274277434831517,294.0,267.0,1367.0,1661.0,0.9081632653061225,4.649659863945578,1.101123595505618,0.14232209737827714,2.292134831460674,0.3037542662116041,1367.0,501.0,644.0,2875.0,1868.0,1007.0,8070.0,6.0,4.0,2.0,2.0,0.0,2.0,,2.0,0.0004956629491945477,0.00024783147459727387,0.0,0.5,0.5,0.0,1.0,1.0,2.0,2.0,2.0
7.0,0.3186487430331876,0.5332336749659935,0.37073445,0.058811873,,,,,,,,,,2948.0,8070.0,5.474898236092266,0.0018577869820469173,0.0016972089230273906,0.8748800006965537,-0.11552919467878778,0.0,3.0,-0.11552919467878778,10.101375595962532,2.736829076661362,0.0009274277434831517,294.0,267.0,1367.0,1661.0,0.9081632653061225,4.649659863945578,1.101123595505618,0.14232209737827714,2.292134831460674,0.3037542662116041,1367.0,501.0,644.0,2875.0,1868.0,1007.0,8070.0,6.0,4.0,2.0,2.0,0.0,2.0,,2.0,0.0004956629491945477,0.00024783147459727387,0.0,0.5,0.5,0.0,1.0,1.0,2.0,2.0,2.0
8.0,0.014582670115769926,0.33013914397510946,0.5716542,0.054469716,2.5,1.5,1.0,1.25,1.0,1.25,1.25,4.25,4.25,2948.0,8070.0,5.474898236092266,0.0018577869820469173,0.0016972089230273906,0.8748800006965537,-0.11552919467878778,0.0,3.0,-0.11552919467878778,10.101375595962532,2.736829076661362,0.0009274277434831517,294.0,267.0,1367.0,1661.0,0.9081632653061225,4.649659863945578,1.101123595505618,0.14232209737827714,2.292134831460674,0.3037542662116041,1367.0,501.0,644.0,2875.0,1868.0,1007.0,8070.0,6.0,4.0,2.0,2.0,0.0,2.0,,2.0,0.0004956629491945477,0.00024783147459727387,0.0,0.5,0.5,0.0,1.0,1.0,2.0,2.0,2.0
9.0,0.7677258011169739,0.8802330371179428,0.38962993,0.10061553,,,,,,,,,,2948.0,8070.0,5.474898236092266,0.0018577869820469173,0.0016972089230273906,0.8748800006965537,-0.11552919467878778,0.0,3.0,-0.11552919467878778,10.101375595962532,2.736829076661362,0.0009274277434831517,294.0,267.0,1367.0,1661.0,0.9081632653061225,4.649659863945578,1.101123595505618,0.14232209737827714,2.292134831460674,0.3037542662116041,1367.0,501.0,644.0,2875.0,1868.0,1007.0,8070.0,6.0,4.0,2.0,2.0,0.0,2.0,,2.0,0.0004956629491945477,0.00024783147459727387,0.0,0.5,0.5,0.0,1.0,1.0,2.0,2.0,2.0
10.0,0.32625766690442587,0.5825735899493008,0.8741282,0.1336669,2.25,2.0,1.75,2.0,1.75,2.0,1.75,2.75,2.75,2948.0,8070.0,5.474898236092266,0.0018577869820469173,0.0016972089230273906,0.8748800006965537,-0.11552919467878778,0.0,3.0,-0.11552919467878778,10.101375595962532,2.736829076661362,0.0009274277434831517,294.0,267.0,1367.0,1661.0,0.9081632653061225,4.649659863945578,1.101123595505618,0.14232209737827714,2.292134831460674,0.3037542662116041,1367.0,501.0,644.0,2875.0,1868.0,1007.0,8070.0,6.0,4.0,2.0,2.0,0.0,2.0,,2.0,0.0004956629491945477,0.00024783147459727387,0.0,0.5,0.5,0.0,1.0,1.0,2.0,2.0,2.0
11.0,0.5592938899998474,0.6029102980272636,0.99602246,0.71995765,,,,,,,,,,2967.0,8115.0,5.470171890798786,0.001844292613216044,0.0016978308595373747,0.8796920263071926,-0.1160654533008814,0.0,3.0,-0.1160654533008814,10.1141358375218,2.7386253623535146,0.0009206995408089138,294.0,267.0,1380.0,1674.0,0.9081632653061225,4.6938775510204085,1.101123595505618,0.14232209737827714,2.292134831460674,0.3037542662116041,1380.0,520.0,644.0,2907.0,1900.0,1007.0,8115.0,8.0,5.0,3.0,3.0,0.0,2.0,0.0,3.0,0.0006161429451632779,0.0003696857670979667,0.0,0.6,0.6,0.0,1.0,1.0,3.0,3.0,3.0
12.0,0.5752556819789574,0.7005784310721003,0.9980145,0.9961675,4.0,2.0,3.0,3.25,3.5,3.75,3.5,3.5,3.25,2967.0,8115.0,5.470171890798786,0.001844292613216044,0.0016978308595373747,0.8796920263071926,-0.1160654533008814,0.0,3.0,-0.1160654533008814,10.1141358375218,2.7386253623535146,0.0009206995408089138,294.0,267.0,1380.0,1674.0,0.9081632653061225,4.6938775510204085,1.101123595505618,0.14232209737827714,2.292134831460674,0.3037542662116041,1380.0,520.0,644.0,2907.0,1900.0,1007.0,8115.0,8.0,5.0,3.0,3.0,0.0,2.0,,3.0,0.0006161429451632779,0.0003696857670979667,0.0,0.6,0.6,0.0,1.0,1.0,3.0,3.0,3.0
13.0,0.1952167749851227,0.4734180199279928,0.996563,0.99415016,,,,,,,,,,2983.0,8157.0,5.468990948709353,0.0018340009888361344,0.001701263300019113,0.8850210092607672,-0.11696727084942325,0.0,3.0,-0.11696727084942325,10.125055299839023,2.740024487285494,0.0009155692740480783,294.0,267.0,1393.0,1687.0,0.9081632653061225,4.738095238095238,1.101123595505618,0.14232209737827714,2.292134831460674,0.3037542662116041,1393.0,539.0,644.0,2939.0,1932.0,1007.0,8157.0,10.0,6.0,4.0,4.0,0.0,2.0,0.0,4.0,0.000735564545788893,0.000490376363859262,0.0,0.6666666666666666,0.6666666666666666,0.0,1.0,1.0,4.0,4.0,4.0
14.0,0.36624083508736865,0.547708512104227,0.9969412,0.9701655,2.5,2.5,3.25,3.25,3.5,3.0,3.25,2.5,3.75,2983.0,8157.0,5.468990948709353,0.0018340009888361344,0.001701263300019113,0.8850210092607672,-0.11696727084942325,0.0,3.0,-0.11696727084942325,10.125055299839023,2.740024487285494,0.0009155692740480783,294.0,267.0,1393.0,1687.0,0.9081632653061225,4.738095238095238,1.101123595505618,0.14232209737827714,2.292134831460674,0.3037542662116041,1393.0,539.0,644.0,2939.0,1932.0,1007.0,8157.0,10.0,6.0,4.0,4.0,0.0,2.0,,4.0,0.000735564545788893,0.000490376363859262,0.0,0.6666666666666666,0.6666666666666666,0.0,1.0,1.0,4.0,4.0,4.0
15.0,0.0,0.08445597410001085,0.997791,0.9818586,,,,,,,,,,2983.0,8157.0,5.468990948709353,0.0018340009888361344,0.001701263300019113,0.8850210092607672,-0.11696727084942325,0.0,3.0,-0.11696727084942325,10.125055299839023,2.740024487285494,0.0009155692740480783,294.0,267.0,1393.0,1687.0,0.9081632653061225,4.738095238095238,1.101123595505618,0.14232209737827714,2.292134831460674,0.3037542662116041,1393.0,539.0,644.0,2939.0,1932.0,1007.0,8157.0,10.0,6.0,4.0,4.0,0.0,2.0,,4.0,0.000735564545788893,0.000490376363859262,0.0,0.6666666666666666,0.6666666666666666,0.0,1.0,1.0,4.0,4.0,4.0
16.0,0.3556039759772742,0.4968589759292499,0.9980218,0.9941512,3.5,1.75,1.75,1.25,1.75,2.0,1.75,4.5,4.25,2983.0,8157.0,5.468990948709353,0.0018340009888361344,0.001701263300019113,0.8850210092607672,-0.11696727084942325,0.0,3.0,-0.11696727084942325,10.125055299839023,2.740024487285494,0.0009155692740480783,294.0,267.0,1393.0,1687.0,0.9081632653061225,4.738095238095238,1.101123595505618,0.14232209737827714,2.292134831460674,0.3037542662116041,1393.0,539.0,644.0,2939.0,1932.0,1007.0,8157.0,10.0,6.0,4.0,4.0,0.0,2.0,,4.0,0.000735564545788893,0.000490376363859262,0.0,0.6666666666666666,0.6666666666666666,0.0,1.0,1.0,4.0,4.0,4.0
17.0,0.0,0.26792940499349593,0.9931347,0.9965237,,,,,,,,,,2983.0,8157.0,5.468990948709353,0.0018340009888361344,0.001701263300019113,0.8850210092607672,-0.11696727084942325,0.0,3.0,-0.11696727084942325,10.125055299839023,2.740024487285494,0.0009155692740480783,294.0,267.0,1393.0,1687.0,0.9081632653061225,4.738095238095238,1.101123595505618,0.14232209737827714,2.292134831460674,0.3037542662116041,1393.0,539.0,644.0,2939.0,1932.0,1007.0,8157.0,10.0,6.0,4.0,4.0,0.0,2.0,,4.0,0.000735564545788893,0.000490376363859262,0.0,0.6666666666666666,0.6666666666666666,0.0,1.0,1.0,4.0,4.0,4.0
18.0,0.7996719180384407,0.7996719180384407,0.98482734,0.99637085,1.0,1.0,1.0,1.0,1.0,1.0,1.0,3.0,3.0,2983.0,8157.0,5.468990948709353,0.0018340009888361344,0.001701263300019113,0.8850210092607672,-0.11696727084942325,0.0,3.0,-0.11696727084942325,10.125055299839023,2.740024487285494,0.0009155692740480783,294.0,267.0,1393.0,1687.0,0.9081632653061225,4.738095238095238,1.101123595505618,0.14232209737827714,2.292134831460674,0.3037542662116041,1393.0,539.0,644.0,2939.0,1932.0,1007.0,8157.0,10.0,6.0,4.0,4.0,0.0,2.0,,4.0,0.000735564545788893,0.000490376363859262,0.0,0.6666666666666666,0.6666666666666666,0.0,1.0,1.0,4.0,4.0,4.0
19.0,0.5199348399388242,0.6741645009581394,0.93975943,0.6608756,3.0,2.0,3.0,3.0,3.0,3.0,3.0,3.0,3.0,2983.0,8157.0,5.468990948709353,0.0018340009888361344,0.001701263300019113,0.8850210092607672,-0.11696727084942325,0.0,3.0,-0.11696727084942325,10.125055299839023,2.740024487285494,0.0009155692740480783,294.0,267.0,1393.0,1687.0,0.9081632653061225,4.738095238095238,1.101123595505618,0.14232209737827714,2.292134831460674,0.3037542662116041,1393.0,539.0,644.0,2939.0,1932.0,1007.0,8157.0,10.0,6.0,4.0,4.0,0.0,2.0,,4.0,0.000735564545788893,0.000490376363859262,0.0,0.6666666666666666,0.6666666666666666,0.0,1.0,1.0,4.0,4.0,4.0
20.0,0.6035190969926395,0.652430273898118,0.6520345,0.26494783,,,,,,,,,,2995.0,8195.0,5.472454090150251,0.001827806977338093,0.0017181841375976186,0.8896265641114381,-0.1191526048833383,0.0,3.0,-0.1191526048833383,10.133759400284006,2.740936531892617,0.0009124835215063503,294.0,267.0,1403.0,1697.0,0.9081632653061225,4.772108843537415,1.101123595505618,0.14232209737827714,2.292134831460674,0.3037542662116041,1403.0,559.0,644.0,2969.0,1962.0,1007.0,8195.0,11.0,7.0,5.0,5.0,0.0,2.0,0.0,5.0,0.0008541793776693106,0.0006101281269066504,0.0,0.7142857142857143,0.7142857142857143,0.0,1.0,1.0,5.0,5.0,5.0
21.0,0.3946560308902442,0.7346600359493819,0.7533641,0.33404097,3.0,3.0,2.0,3.0,3.0,3.0,3.0,3.0,3.0,2995.0,8195.0,5.472454090150251,0.001827806977338093,0.0017181841375976186,0.8896265641114381,-0.1191526048833383,0.0,3.0,-0.1191526048833383,10.133759400284006,2.740936531892617,0.0009124835215063503,294.0,267.0,1403.0,1697.0,0.9081632653061225,4.772108843537415,1.101123595505618,0.14232209737827714,2.292134831460674,0.3037542662116041,1403.0,559.0,644.0,2969.0,1962.0,1007.0,8195.0,11.0,7.0,5.0,5.0,0.0,2.0,,5.0,0.0008541793776693106,0.0006101281269066504,0.0,0.7142857142857143,0.7142857142857143,0.0,1.0,1.0,5.0,5.0,5.0
22.0,0.737215265907919,0.8125730979115591,0.9790974,0.638638,,,,,,,,,,2995.0,8195.0,5.472454090150251,0.001827806977338093,0.0017181841375976186,0.8896265641114381,-0.1191526048833383,0.0,3.0,-0.1191526048833383,10.133759400284006,2.740936531892617,0.0009124835215063503,294.0,267.0,1403.0,1697.0,0.9081632653061225,4.772108843537415,1.101123595505618,0.14232209737827714,2.292134831460674,0.3037542662116041,1403.0,559.0,644.0,2969.0,1962.0,1007.0,8195.0,11.0,7.0,5.0,5.0,0.0,2.0,,5.0,0.0008541793776693106,0.0006101281269066504,0.0,0.7142857142857143,0.7142857142857143,0.0,1.0,1.0,5.0,5.0,5.0
23.0,0.39164503487726143,0.6204900310126961,0.9418879,0.6536772,1.0,1.0,1.0,1.0,1.0,2.0,1.0,2.0,1.0,2995.0,8195.0,5.472454090150251,0.001827806977338093,0.0017181841375976186,0.8896265641114381,-0.1191526048833383,0.0,3.0,-0.1191526048833383,10.133759400284006,2.740936531892617,0.0009124835215063503,294.0,267.0,1403.0,1697.0,0.9081632653061225,4.772108843537415,1.101123595505618,0.14232209737827714,2.292134831460674,0.3037542662116041,1403.0,559.0,644.0,2969.0,1962.0,1007.0,8195.0,11.0,7.0,5.0,5.0,0.0,2.0,,5.0,0.0008541793776693106,0.0006101281269066504,0.0,0.7142857142857143,0.7142857142857143,0.0,1.0,1.0,5.0,5.0,5.0
24.0,0.46394502505140306,0.656990060052557,0.9454956,0.968606,,,,,,,,,,2995.0,8195.0,5.472454090150251,0.001827806977338093,0.0017181841375976186,0.8896265641114381,-0.1191526048833383,0.0,3.0,-0.1191526048833383,10.133759400284006,2.740936531892617,0.0009124835215063503,294.0,267.0,1403.0,1697.0,0.9081632653061225,4.772108843537415,1.101123595505618,0.14232209737827714,2.292134831460674,0.3037542662116041,1403.0,559.0,644.0,2969.0,1962.0,1007.0,8195.0,11.0,7.0,5.0,5.0,0.0,2.0,,5.0,0.0008541793776693106,0.0006101281269066504,0.0,0.7142857142857143,0.7142857142857143,0.0,1.0,1.0,5.0,5.0,5.0
25.0,0.31096120994244,0.632195392972409,0.99198425,0.99578696,1.0,1.0,1.0,1.0,2.0,2.0,1.0,2.0,1.0,2995.0,8195.0,5.472454090150251,0.001827806977338093,0.0017181841375976186,0.8896265641114381,-0.1191526048833383,0.0,3.0,-0.1191526048833383,10.133759400284006,2.740936531892617,0.0009124835215063503,294.0,267.0,1403.0,1697.0,0.9081632653061225,4.772108843537415,1.101123595505618,0.14232209737827714,2.292134831460674,0.3037542662116041,1403.0,559.0,644.0,2969.0,1962.0,1007.0,8195.0,11.0,7.0,5.0,5.0,0.0,2.0,,5.0,0.0008541793776693106,0.0006101281269066504,0.0,0.7142857142857143,0.7142857142857143,0.0,1.0,1.0,5.0,5.0,5.0
26.0,0.45861111206356814,0.7046816649263191,0.997959,0.99691445,,,,,,,,,,3009.0,8233.0,5.472249916915919,0.0018192320202513029,0.0017303724009528712,0.8947169773714135,-0.12080621589803543,0.0,3.0,-0.12080621589803543,10.142907094662185,2.7421753940037035,0.0009082092373593742,294.0,267.0,1413.0,1707.0,0.9081632653061225,4.8061224489795915,1.101123595505618,0.14232209737827714,2.292134831460674,0.3037542662116041,1413.0,579.0,644.0,2999.0,1992.0,1007.0,8233.0,12.0,8.0,6.0,6.0,0.0,2.0,0.0,6.0,0.000971699259079315,0.0007287744443094862,0.0,0.75,0.75,0.0,1.0,1.0,6.0,6.0,6.0
27.0,0.5702283409756247,0.7809051230669638,0.99781996,0.9960652,2.0,2.0,1.0,3.0,2.0,3.0,3.0,3.0,3.0,3009.0,8233.0,5.472249916915919,0.0018192320202513029,0.0017303724009528712,0.8947169773714135,-0.12080621589803543,0.0,3.0,-0.12080621589803543,10.142907094662185,2.7421753940037035,0.0009082092373593742,294.0,267.0,1413.0,1707.0,0.9081632653061225,4.8061224489795915,1.101123595505618,0.14232209737827714,2.292134831460674,0.3037542662116041,1413.0,579.0,644.0,2999.0,1992.0,1007.0,8233.0,12.0,8.0,6.0,6.0,0.0,2.0,,6.0,0.000971699259079315,0.0007287744443094862,0.0,0.75,0.75,0.0,1.0,1.0,6.0,6.0,6.0
28.0,0.0,0.22016885894163896,0.9974463,0.9959641,,,,,,,,,,3009.0,8233.0,5.472249916915919,0.0018192320202513029,0.0017303724009528712,0.8947169773714135,-0.12080621589803543,0.0,3.0,-0.12080621589803543,10.142907094662185,2.7421753940037035,0.0009082092373593742,294.0,267.0,1413.0,1707.0,0.9081632653061225,4.8061224489795915,1.101123595505618,0.14232209737827714,2.292134831460674,0.3037542662116041,1413.0,579.0,644.0,2999.0,1992.0,1007.0,8233.0,12.0,8.0,6.0,6.0,0.0,2.0,,6.0,0.000971699259079315,0.0007287744443094862,0.0,0.75,0.75,0.0,1.0,1.0,6.0,6.0,6.0
29.0,0.710860793947307,0.7434346899847555,0.99504125,0.98734003,2.0,3.0,2.0,2.0,1.0,2.0,3.0,3.0,3.0,3009.0,8233.0,5.472249916915919,0.0018192320202513029,0.0017303724009528712,0.8947169773714135,-0.12080621589803543,0.0,3.0,-0.12080621589803543,10.142907094662185,2.7421753940037035,0.0009082092373593742,294.0,267.0,1413.0,1707.0,0.9081632653061225,4.8061224489795915,1.101123595505618,0.14232209737827714,2.292134831460674,0.3037542662116041,1413.0,579.0,644.0,2999.0,1992.0,1007.0,8233.0,12.0,8.0,6.0,6.0,0.0,2.0,,6.0,0.000971699259079315,0.0007287744443094862,0.0,0.75,0.75,0.0,1.0,1.0,6.0,6.0,6.0
30.0,0.568283001895457,0.723633907933837,0.9681829,0.64915466,,,,,,,,,,3009.0,8233.0,5.472249916915919,0.0018192320202513029,0.0017303724009528712,0.8947169773714135,-0.12080621589803543,0.0,3.0,-0.12080621589803543,10.142907094662185,2.7421753940037035,0.0009082092373593742,294.0,267.0,1413.0,1707.0,0.9081632653061225,4.8061224489795915,1.101123595505618,0.14232209737827714,2.292134831460674,0.3037542662116041,1413.0,579.0,644.0,2999.0,1992.0,1007.0,8233.0,12.0,8.0,6.0,6.0,0.0,2.0,,6.0,0.000971699259079315,0.0007287744443094862,0.0,0.75,0.75,0.0,1.0,1.0,6.0,6.0,6.0
31.0,0.0,0.3990471660272713,0.9865325,0.70948476,,,,,,,,,,3009.0,8233.0,5.472249916915919,0.0018192320202513029,0.0017303724009528712,0.8947169773714135,-0.12080621589803543,0.0,3.0,-0.12080621589803543,10.142907094662185,2.7421753940037035,0.0009082092373593742,294.0,267.0,1413.0,1707.0,0.9081632653061225,4.8061224489795915,1.101123595505618,0.14232209737827714,2.292134831460674,0.3037542662116041,1413.0,579.0,644.0,2999.0,1992.0,1007.0,8233.0,12.0,8.0,6.0,6.0,0.0,2.0,,6.0,0.000971699259079315,0.0007287744443094862,0.0,0.75,0.75,0.0,1.0,1.0,6.0,6.0,6.0
32.0,0.0,0.24615235606674385,0.9835388,0.72016436,,,,,,,,,,3009.0,8233.0,5.472249916915919,0.0018192320202513029,0.0017303724009528712,0.8947169773714135,-0.12080621589803543,0.0,3.0,-0.12080621589803543,10.142907094662185,2.7421753940037035,0.0009082092373593742,294.0,267.0,1413.0,1707.0,0.9081632653061225,4.8061224489795915,1.101123595505618,0.14232209737827714,2.292134831460674,0.3037542662116041,1413.0,579.0,644.0,2999.0,1992.0,1007.0,8233.0,12.0,8.0,6.0,6.0,0.0,2.0,,6.0,0.000971699259079315,0.0007287744443094862,0.0,0.75,0.75,0.0,1.0,1.0,6.0,6.0,6.0
33.0,0.0,0.31038835611180493,0.97814363,0.9672151,,,,,,,,,,3009.0,8233.0,5.472249916915919,0.0018192320202513029,0.0017303724009528712,0.8947169773714135,-0.12080621589803543,0.0,3.0,-0.12080621589803543,10.142907094662185,2.7421753940037035,0.0009082092373593742,294.0,267.0,1413.0,1707.0,0.9081632653061225,4.8061224489795915,1.101123595505618,0.14232209737827714,2.292134831460674,0.3037542662116041,1413.0,579.0,644.0,2999.0,1992.0,1007.0,8233.0,12.0,8.0,6.0,6.0,0.0,2.0,,6.0,0.000971699259079315,0.0007287744443094862,0.0,0.75,0.75,0.0,1.0,1.0,6.0,6.0,6.0
34.0,0.28260716090850074,0.5683439459984567,0.88896316,0.7243279,,,,,,,,,,3009.0,8233.0,5.472249916915919,0.0018192320202513029,0.0017303724009528712,0.8947169773714135,-0.12080621589803543,0.0,3.0,-0.12080621589803543,10.142907094662185,2.7421753940037035,0.0009082092373593742,294.0,267.0,1413.0,1707.0,0.9081632653061225,4.8061224489795915,1.101123595505618,0.14232209737827714,2.292134831460674,0.3037542662116041,1413.0,579.0,644.0,2999.0,1992.0,1007.0,8233.0,12.0,8.0,6.0,6.0,0.0,2.0,,6.0,0.000971699259079315,0.0007287744443094862,0.0,0.75,0.75,0.0,1.0,1.0,6.0,6.0,6.0
35.0,0.3709037569708523,0.49003106101828603,0.9605628,0.72224206,,,,,,,,,,3009.0,8233.0,5.472249916915919,0.0018192320202513029,0.0017303724009528712,0.8947169773714135,-0.12080621589803543,0.0,3.0,-0.12080621589803543,10.142907094662185,2.7421753940037035,0.0009082092373593742,294.0,267.0,1413.0,1707.0,0.9081632653061225,4.8061224489795915,1.101123595505618,0.14232209737827714,2.292134831460674,0.3037542662116041,1413.0,579.0,644.0,2999.0,1992.0,1007.0,8233.0,12.0,8.0,6.0,6.0,0.0,2.0,,6.0,0.000971699259079315,0.0007287744443094862,0.0,0.75,0.75,0.0,1.0,1.0,6.0,6.0,6.0
36.0,0.0,0.1192166730190382,0.9421106,0.8021914,,,,,,,,,,3009.0,8233.0,5.472249916915919,0.0018192320202513029,0.0017303724009528712,0.8947169773714135,-0.12080621589803543,0.0,3.0,-0.12080621589803543,10.142907094662185,2.7421753940037035,0.0009082092373593742,294.0,267.0,1413.0,1707.0,0.9081632653061225,4.8061224489795915,1.101123595505618,0.14232209737827714,2.292134831460674,0.3037542662116041,1413.0,579.0,644.0,2999.0,1992.0,1007.0,8233.0,12.0,8.0,6.0,6.0,0.0,2.0,,6.0,0.000971699259079315,0.0007287744443094862,0.0,0.75,0.75,0.0,1.0,1.0,6.0,6.0,6.0
37.0,0.25739771893189717,0.5820072560375614,0.95310247,0.26189306,,,,,,,,,,3009.0,8233.0,5.472249916915919,0.0018192320202513029,0.0017303724009528712,0.8947169773714135,-0.12080621589803543,0.0,3.0,-0.12080621589803543,10.142907094662185,2.7421753940037035,0.0009082092373593742,294.0,267.0,1413.0,1707.0,0.9081632653061225,4.8061224489795915,1.101123595505618,0.14232209737827714,2.292134831460674,0.3037542662116041,1413.0,579.0,644.0,2999.0,1992.0,1007.0,8233.0,12.0,8.0,6.0,6.0,0.0,2.0,,6.0,0.000971699259079315,0.0007287744443094862,0.0,0.75,0.75,0.0,1.0,1.0,6.0,6.0,6.0
38.0,0.0,0.12805041692699812,0.934562,0.39740238,,,,,,,,,,3027.0,8283.0,5.472745292368682,0.0018085741217345277,0.001739899600893906,0.9021501034904398,-0.12168119672440954,0.0,3.0,-0.12168119672440954,10.155190703962562,2.743491847133967,0.000902896942603017,294.0,267.0,1431.0,1725.0,0.9081632653061225,4.86734693877551,1.101123595505618,0.14232209737827714,2.292134831460674,0.3037542662116041,1431.0,599.0,644.0,3037.0,2030.0,1007.0,8283.0,15.0,10.0,7.0,7.0,0.0,3.0,0.0,7.0,0.0012072920439454304,0.0008451044307618013,0.0,0.7,0.7,0.0,1.0,1.0,7.0,3.5,3.5
39.0,0.0,0.7126688959303589,0.9902405,0.6019097,2.0,2.0,2.0,2.0,2.0,3.0,3.0,3.0,3.0,3027.0,8283.0,5.472745292368682,0.0018085741217345277,0.001739899600893906,0.9021501034904398,-0.12168119672440954,0.0,3.0,-0.12168119672440954,10.155190703962562,2.743491847133967,0.000902896942603017,294.0,267.0,1431.0,1725.0,0.9081632653061225,4.86734693877551,1.101123595505618,0.14232209737827714,2.292134831460674,0.3037542662116041,1431.0,599.0,644.0,3037.0,2030.0,1007.0,8283.0,15.0,10.0,7.0,7.0,0.0,3.0,,7.0,0.0012072920439454304,0.0008451044307618013,0.0,0.7,0.7,0.0,1.0,1.0,7.0,3.5,3.5
40.0,0.41255757989424224,0.665569379981432,0.9804184,0.66967106,,,,,,,,,,3027.0,8283.0,5.472745292368682,0.0018085741217345277,0.001739899600893906,0.9021501034904398,-0.12168119672440954,0.0,3.0,-0.12168119672440954,10.155190703962562,2.743491847133967,0.000902896942603017,294.0,267.0,1431.0,1725.0,0.9081632653061225,4.86734693877551,1.101123595505618,0.14232209737827714,2.292134831460674,0.3037542662116041,1431.0,599.0,644.0,3037.0,2030.0,1007.0,8283.0,15.0,10.0,7.0,7.0,0.0,3.0,,7.0,0.0012072920439454304,0.0008451044307618013,0.0,0.7,0.7,0.0,1.0,1.0,7.0,3.5,3.5
41.0,0.24180064289308584,0.5148616910527378,0.98048085,0.6895107,1.0,1.0,1.0,1.25,1.25,1.0,1.0,1.25,1.0,3027.0,8283.0,5.472745292368682,0.0018085741217345277,0.001739899600893906,0.9021501034904398,-0.12168119672440954,0.0,3.0,-0.12168119672440954,10.155190703962562,2.743491847133967,0.000902896942603017,294.0,267.0,1431.0,1725.0,0.9081632653061225,4.86734693877551,1.101123595505618,0.14232209737827714,2.292134831460674,0.3037542662116041,1431.0,599.0,644.0,3037.0,2030.0,1007.0,8283.0,15.0,10.0,7.0,7.0,0.0,3.0,,7.0,0.0012072920439454304,0.0008451044307618013,0.0,0.7,0.7,0.0,1.0,1.0,7.0,3.5,3.5
42.0,0.27885085311078645,0.6555972698837662,0.8369947,0.97995716,,,,,,,,,,3027.0,8283.0,5.472745292368682,0.0018085741217345277,0.001739899600893906,0.9021501034904398,-0.12168119672440954,0.0,3.0,-0.12168119672440954,10.155190703962562,2.743491847133967,0.000902896942603017,294.0,267.0,1431.0,1725.0,0.9081632653061225,4.86734693877551,1.101123595505618,0.14232209737827714,2.292134831460674,0.3037542662116041,1431.0,599.0,644.0,3037.0,2030.0,1007.0,8283.0,15.0,10.0,7.0,7.0,0.0,3.0,,7.0,0.0012072920439454304,0.0008451044307618013,0.0,0.7,0.7,0.0,1.0,1.0,7.0,3.5,3.5
43.0,0.13742737094061308,0.5333777109324593,0.12004683,0.70479584,2.0,1.75,2.5,1.0,1.75,1.75,2.25,4.0,4.25,3027.0,8283.0,5.472745292368682,0.0018085741217345277,0.001739899600893906,0.9021501034904398,-0.12168119672440954,0.0,3.0,-0.12168119672440954,10.155190703962562,2.743491847133967,0.000902896942603017,294.0,267.0,1431.0,1725.0,0.9081632653061225,4.86734693877551,1.101123595505618,0.14232209737827714,2.292134831460674,0.3037542662116041,1431.0,599.0,644.0,3037.0,2030.0,1007.0,8283.0,15.0,10.0,7.0,7.0,0.0,3.0,,7.0,0.0012072920439454304,0.0008451044307618013,0.0,0.7,0.7,0.0,1.0,1.0,7.0,3.5,3.5
44.0,0.4214541319008102,0.7819986640351753,0.9860299,0.5496349,,,,,,,,,,3027.0,8283.0,5.472745292368682,0.0018085741217345277,0.001739899600893906,0.9021501034904398,-0.12168119672440954,0.0,3.0,-0.12168119672440954,10.155190703962562,2.743491847133967,0.000902896942603017,294.0,267.0,1431.0,1725.0,0.9081632653061225,4.86734693877551,1.101123595505618,0.14232209737827714,2.292134831460674,0.3037542662116041,1431.0,599.0,644.0,3037.0,2030.0,1007.0,8283.0,15.0,10.0,7.0,7.0,0.0,3.0,,7.0,0.0012072920439454304,0.0008451044307618013,0.0,0.7,0.7,0.0,1.0,1.0,7.0,3.5,3.5
45.0,0.4135493979182314,0.5405738419397842,0.9938488,0.13862288,1.75,2.0,1.75,1.25,1.75,2.0,2.0,4.25,4.5,3027.0,8283.0,5.472745292368682,0.0018085741217345277,0.001739899600893906,0.9021501034904398,-0.12168119672440954,0.0,3.0,-0.12168119672440954,10.155190703962562,2.743491847133967,0.000902896942603017,294.0,267.0,1431.0,1725.0,0.9081632653061225,4.86734693877551,1.101123595505618,0.14232209737827714,2.292134831460674,0.3037542662116041,1431.0,599.0,644.0,3037.0,2030.0,1007.0,8283.0,15.0,10.0,7.0,7.0,0.0,3.0,,7.0,0.0012072920439454304,0.0008451044307618013,0.0,0.7,0.7,0.0,1.0,1.0,7.0,3.5,3.5
46.0,0.0,0.46311563288350677,0.9802899,0.035030305,,,,,,,,,,3027.0,8283.0,5.472745292368682,0.0018085741217345277,0.001739899600893906,0.9021501034904398,-0.12168119672440954,0.0,3.0,-0.12168119672440954,10.155190703962562,2.743491847133967,0.000902896942603017,294.0,267.0,1431.0,1725.0,0.9081632653061225,4.86734693877551,1.101123595505618,0.14232209737827714,2.292134831460674,0.3037542662116041,1431.0,599.0,644.0,3037.0,2030.0,1007.0,8283.0,15.0,10.0,7.0,7.0,0.0,3.0,,7.0,0.0012072920439454304,0.0008451044307618013,0.0,0.7,0.7,0.0,1.0,1.0,7.0,3.5,3.5
47.0,0.17017988905673828,0.41161529598913305,0.05899847,0.024742017,1.25,1.5,1.25,1.75,1.5,1.25,1.5,4.0,4.25,3027.0,8283.0,5.472745292368682,0.0018085741217345277,0.001739899600893906,0.9021501034904398,-0.12168119672440954,0.0,3.0,-0.12168119672440954,10.155190703962562,2.743491847133967,0.000902896942603017,294.0,267.0,1431.0,1725.0,0.9081632653061225,4.86734693877551,1.101123595505618,0.14232209737827714,2.292134831460674,0.3037542662116041,1431.0,599.0,644.0,3037.0,2030.0,1007.0,8283.0,15.0,10.0,7.0,7.0,0.0,3.0,,7.0,0.0012072920439454304,0.0008451044307618013,0.0,0.7,0.7,0.0,1.0,1.0,7.0,3.5,3.5
48.0,0.6789251419230404,0.8267417699774647,0.99399614,0.995652,,,,,,,,,,3027.0,8283.0,5.472745292368682,0.0018085741217345277,0.001739899600893906,0.9021501034904398,-0.12168119672440954,0.0,3.0,-0.12168119672440954,10.155190703962562,2.743491847133967,0.000902896942603017,294.0,267.0,1431.0,1725.0,0.9081632653061225,4.86734693877551,1.101123595505618,0.14232209737827714,2.292134831460674,0.3037542662116041,1431.0,599.0,644.0,3037.0,2030.0,1007.0,8283.0,15.0,10.0,7.0,7.0,0.0,3.0,,7.0,0.0012072920439454304,0.0008451044307618013,0.0,0.7,0.7,0.0,1.0,1.0,7.0,3.5,3.5
49.0,0.5826518569053654,0.837620986089865,0.9980303,0.99717796,1.75,1.75,2.75,2.5,3.25,2.5,2.5,3.75,3.25,3027.0,8283.0,5.472745292368682,0.0018085741217345277,0.001739899600893906,0.9021501034904398,-0.12168119672440954,0.0,3.0,-0.12168119672440954,10.155190703962562,2.743491847133967,0.000902896942603017,294.0,267.0,1431.0,1725.0,0.9081632653061225,4.86734693877551,1.101123595505618,0.14232209737827714,2.292134831460674,0.3037542662116041,1431.0,599.0,644.0,3037.0,2030.0,1007.0,8283.0,15.0,10.0,7.0,7.0,0.0,3.0,,7.0,0.0012072920439454304,0.0008451044307618013,0.0,0.7,0.7,0.0,1.0,1.0,7.0,3.5,3.5
50.0,0.45911371505412935,0.5778849329949853,0.9973346,0.99692696,,,,,,,,,,3043.0,8324.0,5.4709168583634575,0.0017984605057079083,0.0017422349596963567,0.9073771353946174,-0.12271948762416589,0.0,3.0,-0.12271948762416589,10.165200775355355,2.744742716825957,0.0008978548138311974,294.0,267.0,1443.0,1737.0,0.9081632653061225,4.908163265306122,1.101123595505618,0.14232209737827714,2.292134831460674,0.3037542662116041,1443.0,618.0,644.0,3068.0,2061.0,1007.0,8324.0,17.0,11.0,8.0,8.0,0.0,3.0,0.0,8.0,0.0013214800576645844,0.0009610764055742432,0.0,0.7272727272727273,0.7272727272727273,0.0,1.0,1.0,8.0,4.0,4.0
51.0,0.42354676603263,0.6400171490429147,0.99604815,0.9954416,2.0,1.75,2.25,1.75,2.25,2.0,2.0,3.75,3.75,3043.0,8324.0,5.4709168583634575,0.0017984605057079083,0.0017422349596963567,0.9073771353946174,-0.12271948762416589,0.0,3.0,-0.12271948762416589,10.165200775355355,2.744742716825957,0.0008978548138311974,294.0,267.0,1443.0,1737.0,0.9081632653061225,4.908163265306122,1.101123595505618,0.14232209737827714,2.292134831460674,0.3037542662116041,1443.0,618.0,644.0,3068.0,2061.0,1007.0,8324.0,17.0,11.0,8.0,8.0,0.0,3.0,,8.0,0.0013214800576645844,0.0009610764055742432,0.0,0.7272727272727273,0.7272727272727273,0.0,1.0,1.0,8.0,4.0,4.0
52.0,0.046449630052699226,0.25316822295121605,0.0041446889,0.66131467,,,,,,,,,,3057.0,8365.0,5.472685639515865,0.001790800274710689,0.0017461372628093258,0.9119046309943262,-0.12476322595485319,0.0,3.0,-0.12476322595485319,10.17399267109306,2.7457227957227954,0.0008940371733273238,294.0,267.0,1456.0,1750.0,0.9081632653061225,4.9523809523809526,1.101123595505618,0.14232209737827714,2.292134831460674,0.3037542662116041,1456.0,638.0,644.0,3101.0,2094.0,1007.0,8365.0,19.0,12.0,9.0,9.0,0.0,3.0,0.0,9.0,0.001434548714883443,0.0010759115361625821,0.0,0.75,0.75,0.0,1.0,1.0,9.0,4.5,4.5
53.0,0.5348599840454553,0.691742133087295,0.010720053,0.6692366,2.0,2.0,2.5,2.0,2.5,2.0,2.25,3.75,3.75,3057.0,8365.0,5.472685639515865,0.001790800274710689,0.0017461372628093258,0.9119046309943262,-0.12476322595485319,0.0,3.0,-0.12476322595485319,10.17399267109306,2.7457227957227954,0.0008940371733273238,294.0,267.0,1456.0,1750.0,0.9081632653061225,4.9523809523809526,1.101123595505618,0.14232209737827714,2.292134831460674,0.3037542662116041,1456.0,638.0,644.0,3101.0,2094.0,1007.0,8365.0,19.0,12.0,9.0,9.0,0.0,3.0,,9.0,0.001434548714883443,0.0010759115361625821,0.0,0.75,0.75,0.0,1.0,1.0,9.0,4.5,4.5
54.0,0.0507268719067681,0.5475708398810673,0.015173428,0.6731415,,,,,,,,,,3071.0,8403.0,5.472484532725496,0.0017825682517021164,0.0017506988943216256,0.9170337114189924,-0.12622446050039074,0.0,3.0,-0.12622446050039074,10.182532714127078,2.74686557625282,0.0008899335714901462,294.0,267.0,1466.0,1760.0,0.9081632653061225,4.98639455782313,1.101123595505618,0.14232209737827714,2.292134831460674,0.3037542662116041,1466.0,657.0,644.0,3130.0,2123.0,1007.0,8403.0,20.0,13.0,10.0,10.0,0.0,3.0,0.0,10.0,0.001547066523860526,0.0011900511722004047,0.0,0.7692307692307693,0.7692307692307693,0.0,1.0,1.0,10.0,5.0,5.0
55.0,0.198198119949824,0.39761152795179566,0.007887302,0.03793796,1.5,1.75,1.25,1.0,1.0,1.25,1.0,2.25,2.25,3071.0,8403.0,5.472484532725496,0.0017825682517021164,0.0017506988943216256,0.9170337114189924,-0.12622446050039074,0.0,3.0,-0.12622446050039074,10.182532714127078,2.74686557625282,0.0008899335714901462,294.0,267.0,1466.0,1760.0,0.9081632653061225,4.98639455782313,1.101123595505618,0.14232209737827714,2.292134831460674,0.3037542662116041,1466.0,657.0,644.0,3130.0,2123.0,1007.0,8403.0,20.0,13.0,10.0,10.0,0.0,3.0,,10.0,0.001547066523860526,0.0011900511722004047,0.0,0.7692307692307693,0.7692307692307693,0.0,1.0,1.0,10.0,5.0,5.0
56.0,0.0,0.05663998799383973,0.15880118,0.32157177,,,,,,,,,,3071.0,8403.0,5.472484532725496,0.0017825682517021164,0.0017506988943216256,0.9170337114189924,-0.12622446050039074,0.0,3.0,-0.12622446050039074,10.182532714127078,2.74686557625282,0.0008899335714901462,294.0,267.0,1466.0,1760.0,0.9081632653061225,4.98639455782313,1.101123595505618,0.14232209737827714,2.292134831460674,0.3037542662116041,1466.0,657.0,644.0,3130.0,2123.0,1007.0,8403.0,20.0,13.0,10.0,10.0,0.0,3.0,,10.0,0.001547066523860526,0.0011900511722004047,0.0,0.7692307692307693,0.7692307692307693,0.0,1.0,1.0,10.0,5.0,5.0
57.0,0.42789441901478936,0.5834464879460964,0.089175105,0.118496284,1.0,1.0,1.25,1.0,1.25,1.0,1.0,3.75,4.5,3071.0,8403.0,5.472484532725496,0.0017825682517021164,0.0017506988943216256,0.9170337114189924,-0.12622446050039074,0.0,3.0,-0.12622446050039074,10.182532714127078,2.74686557625282,0.0008899335714901462,294.0,267.0,1466.0,1760.0,0.9081632653061225,4.98639455782313,1.101123595505618,0.14232209737827714,2.292134831460674,0.3037542662116041,1466.0,657.0,644.0,3130.0,2123.0,1007.0,8403.0,20.0,13.0,10.0,10.0,0.0,3.0,,10.0,0.001547066523860526,0.0011900511722004047,0.0,0.7692307692307693,0.7692307692307693,0.0,1.0,1.0,10.0,5.0,5.0
58.0,0.0,0.07195378098727892,0.23066308,0.39441797,,,,,,,,,,3071.0,8403.0,5.472484532725496,0.0017825682517021164,0.0017506988943216256,0.9170337114189924,-0.12622446050039074,0.0,3.0,-0.12622446050039074,10.182532714127078,2.74686557625282,0.0008899335714901462,294.0,267.0,1466.0,1760.0,0.9081632653061225,4.98639455782313,1.101123595505618,0.14232209737827714,2.292134831460674,0.3037542662116041,1466.0,657.0,644.0,3130.0,2123.0,1007.0,8403.0,20.0,13.0,10.0,10.0,0.0,3.0,,10.0,0.001547066523860526,0.0011900511722004047,0.0,0.7692307692307693,0.7692307692307693,0.0,1.0,1.0,10.0,5.0,5.0
59.0,0.5094027299939472,0.6509329388770914,0.08740096,0.6369001,1.0,1.0,1.0,1.0,1.0,1.0,1.0,1.0,1.0,3071.0,8403.0,5.472484532725496,0.0017825682517021164,0.0017506988943216256,0.9170337114189924,-0.12622446050039074,0.0,3.0,-0.12622446050039074,10.182532714127078,2.74686557625282,0.0008899335714901462,294.0,267.0,1466.0,1760.0,0.9081632653061225,4.98639455782313,1.101123595505618,0.14232209737827714,2.292134831460674,0.3037542662116041,1466.0,657.0,644.0,3130.0,2123.0,1007.0,8403.0,20.0,13.0,10.0,10.0,0.0,3.0,,10.0,0.001547066523860526,0.0011900511722004047,0.0,0.7692307692307693,0.7692307692307693,0.0,1.0,1.0,10.0,5.0,5.0
60.0,0.32755198806598124,0.5750952829668877,0.20577051,0.6440651,,,,,,,,,,3071.0,8403.0,5.472484532725496,0.0017825682517021164,0.0017506988943216256,0.9170337114189924,-0.12622446050039074,0.0,3.0,-0.12622446050039074,10.182532714127078,2.74686557625282,0.0008899335714901462,294.0,267.0,1466.0,1760.0,0.9081632653061225,4.98639455782313,1.101123595505618,0.14232209737827714,2.292134831460674,0.3037542662116041,1466.0,657.0,644.0,3130.0,2123.0,1007.0,8403.0,20.0,13.0,10.0,10.0,0.0,3.0,,10.0,0.001547066523860526,0.0011900511722004047,0.0,0.7692307692307693,0.7692307692307693,0.0,1.0,1.0,10.0,5.0,5.0
61.0,0.0,0.15787597000149725,0.058980864,0.74284136,,,,,,,,,,3071.0,8403.0,5.472484532725496,0.0017825682517021164,0.0017506988943216256,0.9170337114189924,-0.12622446050039074,0.0,3.0,-0.12622446050039074,10.182532714127078,2.74686557625282,0.0008899335714901462,294.0,267.0,1466.0,1760.0,0.9081632653061225,4.98639455782313,1.101123595505618,0.14232209737827714,2.292134831460674,0.3037542662116041,1466.0,657.0,644.0,3130.0,2123.0,1007.0,8403.0,20.0,13.0,10.0,10.0,0.0,3.0,,10.0,0.001547066523860526,0.0011900511722004047,0.0,0.7692307692307693,0.7692307692307693,0.0,1.0,1.0,10.0,5.0,5.0
62.0,0.32189913997028347,0.5894689709737033,0.06287483,0.6894462,,,,,,,,,,3071.0,8403.0,5.472484532725496,0.0017825682517021164,0.0017506988943216256,0.9170337114189924,-0.12622446050039074,0.0,3.0,-0.12622446050039074,10.182532714127078,2.74686557625282,0.0008899335714901462,294.0,267.0,1466.0,1760.0,0.9081632653061225,4.98639455782313,1.101123595505618,0.14232209737827714,2.292134831460674,0.3037542662116041,1466.0,657.0,644.0,3130.0,2123.0,1007.0,8403.0,20.0,13.0,10.0,10.0,0.0,3.0,,10.0,0.001547066523860526,0.0011900511722004047,0.0,0.7692307692307693,0.7692307692307693,0.0,1.0,1.0,10.0,5.0,5.0
63.0,0.0,0.0553590020506873,0.01200248,0.6718855,,,,,,,,,,3089.0,8453.0,5.472968598251861,0.0017723343906256032,0.0017634962332474585,0.9242517884496514,-0.12750097343900435,0.0,3.0,-0.12750097343900435,10.19383495435595,2.748054472712754,0.0008848323099719648,294.0,267.0,1484.0,1778.0,0.9081632653061225,5.0476190476190474,1.101123595505618,0.14232209737827714,2.292134831460674,0.3037542662116041,1484.0,677.0,644.0,3168.0,2161.0,1007.0,8453.0,23.0,15.0,11.0,11.0,0.0,4.0,0.0,11.0,0.0017745179226310187,0.001301313143262747,0.0,0.7333333333333333,0.7333333333333333,0.0,1.0,1.0,11.0,3.6666666666666665,3.6666666666666665
64.0,0.6183350930152823,0.7786557710415216,0.011167788,0.69278693,3.0,2.0,3.0,3.0,3.0,3.0,3.0,3.0,3.0,3089.0,8453.0,5.472968598251861,0.0017723343906256032,0.0017634962332474585,0.9242517884496514,-0.12750097343900435,0.0,3.0,-0.12750097343900435,10.19383495435595,2.748054472712754,0.0008848323099719648,294.0,267.0,1484.0,1778.0,0.9081632653061225,5.0476190476190474,1.101123595505618,0.14232209737827714,2.292134831460674,0.3037542662116041,1484.0,677.0,644.0,3168.0,2161.0,1007.0,8453.0,23.0,15.0,11.0,11.0,0.0,4.0,,11.0,0.0017745179226310187,0.001301313143262747,0.0,0.7333333333333333,0.7333333333333333,0.0,1.0,1.0,11.0,3.6666666666666665,3.6666666666666665
65.0,0.6075559851126862,0.6420620049138999,0.006348147875,0.040766705,,,,,,,,,,3089.0,8453.0,5.472968598251861,0.0017723343906256032,0.0017634962332474585,0.9242517884496514,-0.12750097343900435,0.0,3.0,-0.12750097343900435,10.19383495435595,2.748054472712754,0.0008848323099719648,294.0,267.0,1484.0,1778.0,0.9081632653061225,5.0476190476190474,1.101123595505618,0.14232209737827714,2.292134831460674,0.3037542662116041,1484.0,677.0,644.0,3168.0,2161.0,1007.0,8453.0,23.0,15.0,11.0,11.0,0.0,4.0,,11.0,0.0017745179226310187,0.001301313143262747,0.0,0.7333333333333333,0.7333333333333333,0.0,1.0,1.0,11.0,3.6666666666666665,3.6666666666666665
66.0,0.26431759696585577,0.5976452521027136,0.019581133,0.3657113,2.75,2.0,3.0,1.75,2.5,2.75,2.5,3.5,3.75,3089.0,8453.0,5.472968598251861,0.0017723343906256032,0.0017634962332474585,0.9242517884496514,-0.12750097343900435,0.0,3.0,-0.12750097343900435,10.19383495435595,2.748054472712754,0.0008848323099719648,294.0,267.0,1484.0,1778.0,0.9081632653061225,5.0476190476190474,1.101123595505618,0.14232209737827714,2.292134831460674,0.3037542662116041,1484.0,677.0,644.0,3168.0,2161.0,1007.0,8453.0,23.0,15.0,11.0,11.0,0.0,4.0,,11.0,0.0017745179226310187,0.001301313143262747,0.0,0.7333333333333333,0.7333333333333333,0.0,1.0,1.0,11.0,3.6666666666666665,3.6666666666666665
67.0,0.7147816869159069,0.8041008489335947,0.9650341,0.48093733,,,,,,,,,,3089.0,8453.0,5.472968598251861,0.0017723343906256032,0.0017634962332474585,0.9242517884496514,-0.12750097343900435,0.0,3.0,-0.12750097343900435,10.19383495435595,2.748054472712754,0.0008848323099719648,294.0,267.0,1484.0,1778.0,0.9081632653061225,5.0476190476190474,1.101123595505618,0.14232209737827714,2.292134831460674,0.3037542662116041,1484.0,677.0,644.0,3168.0,2161.0,1007.0,8453.0,23.0,15.0,11.0,11.0,0.0,4.0,,11.0,0.0017745179226310187,0.001301313143262747,0.0,0.7333333333333333,0.7333333333333333,0.0,1.0,1.0,11.0,3.6666666666666665,3.6666666666666665
68.0,0.2922382451019351,0.5493519800722059,0.9971593,0.82680976,1.25,1.0,1.5,1.5,2.0,2.25,2.0,4.25,4.5,3089.0,8453.0,5.472968598251861,0.0017723343906256032,0.0017634962332474585,0.9242517884496514,-0.12750097343900435,0.0,3.0,-0.12750097343900435,10.19383495435595,2.748054472712754,0.0008848323099719648,294.0,267.0,1484.0,1778.0,0.9081632653061225,5.0476190476190474,1.101123595505618,0.14232209737827714,2.292134831460674,0.3037542662116041,1484.0,677.0,644.0,3168.0,2161.0,1007.0,8453.0,23.0,15.0,11.0,11.0,0.0,4.0,,11.0,0.0017745179226310187,0.001301313143262747,0.0,0.7333333333333333,0.7333333333333333,0.0,1.0,1.0,11.0,3.6666666666666665,3.6666666666666665
69.0,0.6269235610240479,0.8525923490131073,0.080939926,0.31456468,,,,,,,,,,3089.0,8453.0,5.472968598251861,0.0017723343906256032,0.0017634962332474585,0.9242517884496514,-0.12750097343900435,0.0,3.0,-0.12750097343900435,10.19383495435595,2.748054472712754,0.0008848323099719648,294.0,267.0,1484.0,1778.0,0.9081632653061225,5.0476190476190474,1.101123595505618,0.14232209737827714,2.292134831460674,0.3037542662116041,1484.0,677.0,644.0,3168.0,2161.0,1007.0,8453.0,23.0,15.0,11.0,11.0,0.0,4.0,,11.0,0.0017745179226310187,0.001301313143262747,0.0,0.7333333333333333,0.7333333333333333,0.0,1.0,1.0,11.0,3.6666666666666665,3.6666666666666665
70.0,0.8533892841101123,0.9650758719435321,0.99804014,0.44174537,2.25,2.0,3.0,2.5,3.0,2.75,2.5,2.5,2.75,3089.0,8453.0,5.472968598251861,0.0017723343906256032,0.0017634962332474585,0.9242517884496514,-0.12750097343900435,0.0,3.0,-0.12750097343900435,10.19383495435595,2.748054472712754,0.0008848323099719648,294.0,267.0,1484.0,1778.0,0.9081632653061225,5.0476190476190474,1.101123595505618,0.14232209737827714,2.292134831460674,0.3037542662116041,1484.0,677.0,644.0,3168.0,2161.0,1007.0,8453.0,23.0,15.0,11.0,11.0,0.0,4.0,,11.0,0.0017745179226310187,0.001301313143262747,0.0,0.7333333333333333,0.7333333333333333,0.0,1.0,1.0,11.0,3.6666666666666665,3.6666666666666665
71.0,0.7190204410436267,0.757519781897377,0.99842626,0.4582078,,,,,,,,,,3100.0,8490.0,5.47741935483871,0.0017674796240202354,0.0017781929926032698,0.9286204188162892,-0.1293305642656681,0.0,3.0,-0.1293305642656681,10.201091435033831,2.748902899652174,0.0008824141519250781,294.0,267.0,1494.0,1788.0,0.9081632653061225,5.081632653061225,1.101123595505618,0.14232209737827714,2.292134831460674,0.3037542662116041,1494.0,697.0,644.0,3198.0,2191.0,1007.0,8490.0,23.0,16.0,12.0,12.0,0.0,4.0,0.0,12.0,0.001884570082449941,0.0014134275618374558,0.0,0.75,0.75,0.0,1.0,1.0,12.0,4.0,4.0
72.0,0.348266465897351,0.6030084960661541,0.998349,0.542596,3.25,3.0,3.5,3.5,3.25,3.25,3.75,3.75,3.75,3100.0,8490.0,5.47741935483871,0.0017674796240202354,0.0017781929926032698,0.9286204188162892,-0.1293305642656681,0.0,3.0,-0.1293305642656681,10.201091435033831,2.748902899652174,0.0008824141519250781,294.0,267.0,1494.0,1788.0,0.9081632653061225,5.081632653061225,1.101123595505618,0.14232209737827714,2.292134831460674,0.3037542662116041,1494.0,697.0,644.0,3198.0,2191.0,1007.0,8490.0,23.0,16.0,12.0,12.0,0.0,4.0,,12.0,0.001884570082449941,0.0014134275618374558,0.0,0.75,0.75,0.0,1.0,1.0,12.0,4.0,4.0
73.0,0.0,0.32074612394768526,0.9984404,0.9970901,,,,,,,,,,3100.0,8490.0,5.47741935483871,0.0017674796240202354,0.0017781929926032698,0.9286204188162892,-0.1293305642656681,0.0,3.0,-0.1293305642656681,10.201091435033831,2.748902899652174,0.0008824141519250781,294.0,267.0,1494.0,1788.0,0.9081632653061225,5.081632653061225,1.101123595505618,0.14232209737827714,2.292134831460674,0.3037542662116041,1494.0,697.0,644.0,3198.0,2191.0,1007.0,8490.0,23.0,16.0,12.0,12.0,0.0,4.0,,12.0,0.001884570082449941,0.0014134275618374558,0.0,0.75,0.75,0.0,1.0,1.0,12.0,4.0,4.0
74.0,0.24665880487899938,0.43246577195851393,0.9984343,0.99706376,3.0,3.25,3.5,2.5,3.0,3.5,3.5,4.0,4.5,3100.0,8490.0,5.47741935483871,0.0017674796240202354,0.0017781929926032698,0.9286204188162892,-0.1293305642656681,0.0,3.0,-0.1293305642656681,10.201091435033831,2.748902899652174,0.0008824141519250781,294.0,267.0,1494.0,1788.0,0.9081632653061225,5.081632653061225,1.101123595505618,0.14232209737827714,2.292134831460674,0.3037542662116041,1494.0,697.0,644.0,3198.0,2191.0,1007.0,8490.0,23.0,16.0,12.0,12.0,0.0,4.0,,12.0,0.001884570082449941,0.0014134275618374558,0.0,0.75,0.75,0.0,1.0,1.0,12.0,4.0,4.0
75.0,0.0,0.2103337940888481,0.9981982,0.9972828,,,,,,,,,,3100.0,8490.0,5.47741935483871,0.0017674796240202354,0.0017781929926032698,0.9286204188162892,-0.1293305642656681,0.0,3.0,-0.1293305642656681,10.201091435033831,2.748902899652174,0.0008824141519250781,294.0,267.0,1494.0,1788.0,0.9081632653061225,5.081632653061225,1.101123595505618,0.14232209737827714,2.292134831460674,0.3037542662116041,1494.0,697.0,644.0,3198.0,2191.0,1007.0,8490.0,23.0,16.0,12.0,12.0,0.0,4.0,,12.0,0.001884570082449941,0.0014134275618374558,0.0,0.75,0.75,0.0,1.0,1.0,12.0,4.0,4.0
76.0,0.08054863509337822,0.371849711996099,0.99732906,0.99729025,,,,,,,,,,3100.0,8490.0,5.47741935483871,0.0017674796240202354,0.0017781929926032698,0.9286204188162892,-0.1293305642656681,0.0,3.0,-0.1293305642656681,10.201091435033831,2.748902899652174,0.0008824141519250781,294.0,267.0,1494.0,1788.0,0.9081632653061225,5.081632653061225,1.101123595505618,0.14232209737827714,2.292134831460674,0.3037542662116041,1494.0,697.0,644.0,3198.0,2191.0,1007.0,8490.0,23.0,16.0,12.0,12.0,0.0,4.0,,12.0,0.001884570082449941,0.0014134275618374558,0.0,0.75,0.75,0.0,1.0,1.0,12.0,4.0,4.0
77.0,0.24487121197585895,0.4685485061245842,0.9974692,0.99576765,,,,,,,,,,3100.0,8490.0,5.47741935483871,0.0017674796240202354,0.0017781929926032698,0.9286204188162892,-0.1293305642656681,0.0,3.0,-0.1293305642656681,10.201091435033831,2.748902899652174,0.0008824141519250781,294.0,267.0,1494.0,1788.0,0.9081632653061225,5.081632653061225,1.101123595505618,0.14232209737827714,2.292134831460674,0.3037542662116041,1494.0,697.0,644.0,3198.0,2191.0,1007.0,8490.0,23.0,16.0,12.0,12.0,0.0,4.0,,12.0,0.001884570082449941,0.0014134275618374558,0.0,0.75,0.75,0.0,1.0,1.0,12.0,4.0,4.0
78.0,0.0,0.0802200061015768,0.25243253,0.853393,,,,,,,,,,3100.0,8490.0,5.47741935483871,0.0017674796240202354,0.0017781929926032698,0.9286204188162892,-0.1293305642656681,0.0,3.0,-0.1293305642656681,10.201091435033831,2.748902899652174,0.0008824141519250781,294.0,267.0,1494.0,1788.0,0.9081632653061225,5.081632653061225,1.101123595505618,0.14232209737827714,2.292134831460674,0.3037542662116041,1494.0,697.0,644.0,3198.0,2191.0,1007.0,8490.0,23.0,16.0,12.0,12.0,0.0,4.0,,12.0,0.001884570082449941,0.0014134275618374558,0.0,0.75,0.75,0.0,1.0,1.0,12.0,4.0,4.0
79.0,0.2916339039950638,0.5157675890528659,0.58334655,0.74264055,,,,,,,,,,3100.0,8490.0,5.47741935483871,0.0017674796240202354,0.0017781929926032698,0.9286204188162892,-0.1293305642656681,0.0,3.0,-0.1293305642656681,10.201091435033831,2.748902899652174,0.0008824141519250781,294.0,267.0,1494.0,1788.0,0.9081632653061225,5.081632653061225,1.101123595505618,0.14232209737827714,2.292134831460674,0.3037542662116041,1494.0,697.0,644.0,3198.0,2191.0,1007.0,8490.0,23.0,16.0,12.0,12.0,0.0,4.0,,12.0,0.001884570082449941,0.0014134275618374558,0.0,0.75,0.75,0.0,1.0,1.0,12.0,4.0,4.0
80.0,0.0,0.07607004797874545,0.91182655,0.78673255,,,,,,,,,,3118.0,8540.0,5.477870429762668,0.0017574175263916161,0.0017948506802379983,0.9357867183004408,-0.13065967411798632,0.0,3.0,-0.13065967411798632,10.211958482262006,2.750034892315483,0.0008773983421388606,294.0,267.0,1512.0,1806.0,0.9081632653061225,5.142857142857143,1.101123595505618,0.14232209737827714,2.292134831460674,0.3037542662116041,1512.0,717.0,644.0,3236.0,2229.0,1007.0,8540.0,26.0,18.0,13.0,13.0,0.0,5.0,0.0,13.0,0.002107728337236534,0.001522248243559719,0.0,0.7222222222222222,0.7222222222222222,0.0,1.0,1.0,13.0,3.25,3.25
81.0,0.5244670719727077,0.6612937569904557,0.87710845,0.95688033,4.5,4.5,4.5,4.5,4.5,4.5,4.5,4.5,4.5,3118.0,8540.0,5.477870429762668,0.0017574175263916161,0.0017948506802379983,0.9357867183004408,-0.13065967411798632,0.0,3.0,-0.13065967411798632,10.211958482262006,2.750034892315483,0.0008773983421388606,294.0,267.0,1512.0,1806.0,0.9081632653061225,5.142857142857143,1.101123595505618,0.14232209737827714,2.292134831460674,0.3037542662116041,1512.0,717.0,644.0,3236.0,2229.0,1007.0,8540.0,26.0,18.0,13.0,13.0,0.0,5.0,,13.0,0.002107728337236534,0.001522248243559719,0.0,0.7222222222222222,0.7222222222222222,0.0,1.0,1.0,13.0,3.25,3.25
82.0,0.37263941791207883,0.43172413888947775,0.80477005,0.71887624,,,,,,,,,,3132.0,8580.0,5.478927203065134,0.0017498969029272225,0.001807901697536808,0.940311086481967,-0.13195687801727723,0.0,3.0,-0.13195687801727723,10.220200551421263,2.7510712122006087,0.0008736496658723285,294.0,267.0,1524.0,1818.0,0.9081632653061225,5.183673469387755,1.101123595505618,0.14232209737827714,2.292134831460674,0.3037542662116041,1524.0,736.0,644.0,3267.0,2260.0,1007.0,8580.0,27.0,19.0,14.0,14.0,0.0,5.0,0.0,14.0,0.0022144522144522147,0.0016317016317016317,0.0,0.7368421052631579,0.7368421052631579,0.0,1.0,1.0,14.0,3.5,3.5
83.0,0.21791552189052485,0.5040378650007376,0.99208444,0.99674654,3.25,2.75,4.0,3.75,4.0,3.75,4.0,2.75,2.5,3132.0,8580.0,5.478927203065134,0.0017498969029272225,0.001807901697536808,0.940311086481967,-0.13195687801727723,0.0,3.0,-0.13195687801727723,10.220200551421263,2.7510712122006087,0.0008736496658723285,294.0,267.0,1524.0,1818.0,0.9081632653061225,5.183673469387755,1.101123595505618,0.14232209737827714,2.292134831460674,0.3037542662116041,1524.0,736.0,644.0,3267.0,2260.0,1007.0,8580.0,27.0,19.0,14.0,14.0,0.0,5.0,,14.0,0.0022144522144522147,0.0016317016317016317,0.0,0.7368421052631579,0.7368421052631579,0.0,1.0,1.0,14.0,3.5,3.5
84.0,0.10108665506478307,0.3773832750825167,0.93847495,0.70926994,,,,,,,,,,3149.0,8621.0,5.475389012384884,0.0017393230661959605,0.0018078232482737523,0.9447190073376626,-0.13277466123836093,0.0,3.0,-0.13277466123836093,10.229515085726158,2.7523506902634076,0.0008683769116822057,294.0,267.0,1535.0,1829.0,0.9081632653061225,5.22108843537415,1.101123595505618,0.14232209737827714,2.292134831460674,0.3037542662116041,1535.0,755.0,644.0,3297.0,2290.0,1007.0,8621.0,29.0,20.0,15.0,15.0,0.0,5.0,0.0,15.0,0.0023199164830066117,0.0017399373622549589,0.0,0.75,0.75,0.0,1.0,1.0,15.0,3.75,3.75
85.0,0.31942628902820613,0.6322107799837804,0.99498546,0.970086,1.5,2.5,3.25,3.25,2.5,2.25,2.5,1.75,1.75,3149.0,8621.0,5.475389012384884,0.0017393230661959605,0.0018078232482737523,0.9447190073376626,-0.13277466123836093,0.0,3.0,-0.13277466123836093,10.229515085726158,2.7523506902634076,0.0008683769116822057,294.0,267.0,1535.0,1829.0,0.9081632653061225,5.22108843537415,1.101123595505618,0.14232209737827714,2.292134831460674,0.3037542662116041,1535.0,755.0,644.0,3297.0,2290.0,1007.0,8621.0,29.0,20.0,15.0,15.0,0.0,5.0,,15.0,0.0023199164830066117,0.0017399373622549589,0.0,0.75,0.75,0.0,1.0,1.0,15.0,3.75,3.75
86.0,0.1202192720937767,0.28524000199412247,0.99623966,0.99594015,,,,,,,,,,3166.0,8663.0,5.472520530638029,0.0017290744172632,0.0018077664789953993,0.9488780712745332,-0.13356571575770546,0.0,3.0,-0.13356571575770546,10.238694950472961,2.7535799480670398,0.0008632664894574341,294.0,267.0,1547.0,1841.0,0.9081632653061225,5.261904761904762,1.101123595505618,0.14232209737827714,2.292134831460674,0.3037542662116041,1547.0,774.0,644.0,3328.0,2321.0,1007.0,8663.0,31.0,21.0,16.0,16.0,0.0,5.0,0.0,16.0,0.002424102504905922,0.0018469352418330831,0.0,0.7619047619047619,0.7619047619047619,0.0,1.0,1.0,16.0,4.0,4.0
87.0,0.5515205080826335,0.7402706040263891,0.99631405,0.9966041,3.5,2.75,3.25,3.5,3.75,3.5,3.75,4.25,4.25,3166.0,8663.0,5.472520530638029,0.0017290744172632,0.0018077664789953993,0.9488780712745332,-0.13356571575770546,0.0,3.0,-0.13356571575770546,10.238694950472961,2.7535799480670398,0.0008632664894574341,294.0,267.0,1547.0,1841.0,0.9081632653061225,5.261904761904762,1.101123595505618,0.14232209737827714,2.292134831460674,0.3037542662116041,1547.0,774.0,644.0,3328.0,2321.0,1007.0,8663.0,31.0,21.0,16.0,16.0,0.0,5.0,,16.0,0.002424102504905922,0.0018469352418330831,0.0,0.7619047619047619,0.7619047619047619,0.0,1.0,1.0,16.0,4.0,4.0
88.0,0.3455083479094878,0.7323702810548707,0.9945684,0.9958754,,,,,,,,,,3166.0,8663.0,5.472520530638029,0.0017290744172632,0.0018077664789953993,0.9488780712745332,-0.13356571575770546,0.0,3.0,-0.13356571575770546,10.238694950472961,2.7535799480670398,0.0008632664894574341,294.0,267.0,1547.0,1841.0,0.9081632653061225,5.261904761904762,1.101123595505618,0.14232209737827714,2.292134831460674,0.3037542662116041,1547.0,774.0,644.0,3328.0,2321.0,1007.0,8663.0,31.0,21.0,16.0,16.0,0.0,5.0,,16.0,0.002424102504905922,0.0018469352418330831,0.0,0.7619047619047619,0.7619047619047619,0.0,1.0,1.0,16.0,4.0,4.0
89.0,0.3075298449689617,0.5960002949000536,0.9912217,0.99415666,1.5,1.5,2.25,1.75,2.0,1.75,2.0,2.75,2.5,3166.0,8663.0,5.472520530638029,0.0017290744172632,0.0018077664789953993,0.9488780712745332,-0.13356571575770546,0.0,3.0,-0.13356571575770546,10.238694950472961,2.7535799480670398,0.0008632664894574341,294.0,267.0,1547.0,1841.0,0.9081632653061225,5.261904761904762,1.101123595505618,0.14232209737827714,2.292134831460674,0.3037542662116041,1547.0,774.0,644.0,3328.0,2321.0,1007.0,8663.0,31.0,21.0,16.0,16.0,0.0,5.0,,16.0,0.002424102504905922,0.0018469352418330831,0.0,0.7619047619047619,0.7619047619047619,0.0,1.0,1.0,16.0,4.0,4.0
90.0,0.44892645494562144,0.49554290905123993,0.99387604,0.99546295,,,,,,,,,,3183.0,8704.0,5.469054351240968,0.0017187474391077836,0.0018075650373806937,0.9531485338294002,-0.13419808617639792,0.0,3.0,-0.13419808617639792,10.247703686454496,2.754797996609062,0.0008581167092023689,294.0,267.0,1558.0,1852.0,0.9081632653061225,5.299319727891157,1.101123595505618,0.14232209737827714,2.292134831460674,0.3037542662116041,1558.0,793.0,644.0,3358.0,2351.0,1007.0,8704.0,33.0,22.0,17.0,17.0,0.0,5.0,0.0,17.0,0.002527573529411765,0.001953125,0.0,0.7727272727272727,0.7727272727272727,0.0,1.0,1.0,17.0,4.25,4.25
91.0,0.4767141279779928,0.8112832399878751,0.9976113,0.70313364,2.75,2.75,3.5,2.25,3.0,3.0,2.75,4.25,4.25,3183.0,8704.0,5.469054351240968,0.0017187474391077836,0.0018075650373806937,0.9531485338294002,-0.13419808617639792,0.0,3.0,-0.13419808617639792,10.247703686454496,2.754797996609062,0.0008581167092023689,294.0,267.0,1558.0,1852.0,0.9081632653061225,5.299319727891157,1.101123595505618,0.14232209737827714,2.292134831460674,0.3037542662116041,1558.0,793.0,644.0,3358.0,2351.0,1007.0,8704.0,33.0,22.0,17.0,17.0,0.0,5.0,,17.0,0.002527573529411765,0.001953125,0.0,0.7727272727272727,0.7727272727272727,0.0,1.0,1.0,17.0,4.25,4.25
92.0,0.0,0.18668431010906217,0.99617684,0.99624896,,,,,,,,,,3183.0,8704.0,5.469054351240968,0.0017187474391077836,0.0018075650373806937,0.9531485338294002,-0.13419808617639792,0.0,3.0,-0.13419808617639792,10.247703686454496,2.754797996609062,0.0008581167092023689,294.0,267.0,1558.0,1852.0,0.9081632653061225,5.299319727891157,1.101123595505618,0.14232209737827714,2.292134831460674,0.3037542662116041,1558.0,793.0,644.0,3358.0,2351.0,1007.0,8704.0,33.0,22.0,17.0,17.0,0.0,5.0,,17.0,0.002527573529411765,0.001953125,0.0,0.7727272727272727,0.7727272727272727,0.0,1.0,1.0,17.0,4.25,4.25
93.0,0.0,0.10580584401713179,0.9957057,0.99148065,,,,,,,,,,3183.0,8704.0,5.469054351240968,0.0017187474391077836,0.0018075650373806937,0.9531485338294002,-0.13419808617639792,0.0,3.0,-0.13419808617639792,10.247703686454496,2.754797996609062,0.0008581167092023689,294.0,267.0,1558.0,1852.0,0.9081632653061225,5.299319727891157,1.101123595505618,0.14232209737827714,2.292134831460674,0.3037542662116041,1558.0,793.0,644.0,3358.0,2351.0,1007.0,8704.0,33.0,22.0,17.0,17.0,0.0,5.0,,17.0,0.002527573529411765,0.001953125,0.0,0.7727272727272727,0.7727272727272727,0.0,1.0,1.0,17.0,4.25,4.25
94.0,0.5035144979317889,0.656476563053814,0.99503946,0.9751283,,,,,,,,,,3183.0,8704.0,5.469054351240968,0.0017187474391077836,0.0018075650373806937,0.9531485338294002,-0.13419808617639792,0.0,3.0,-0.13419808617639792,10.247703686454496,2.754797996609062,0.0008581167092023689,294.0,267.0,1558.0,1852.0,0.9081632653061225,5.299319727891157,1.101123595505618,0.14232209737827714,2.292134831460674,0.3037542662116041,1558.0,793.0,644.0,3358.0,2351.0,1007.0,8704.0,33.0,22.0,17.0,17.0,0.0,5.0,,17.0,0.002527573529411765,0.001953125,0.0,0.7727272727272727,0.7727272727272727,0.0,1.0,1.0,17.0,4.25,4.25
95.0,0.0,0.07955212897775457,0.9961476,0.9946419,,,,,,,,,,3183.0,8704.0,5.469054351240968,0.0017187474391077836,0.0018075650373806937,0.9531485338294002,-0.13419808617639792,0.0,3.0,-0.13419808617639792,10.247703686454496,2.754797996609062,0.0008581167092023689,294.0,267.0,1558.0,1852.0,0.9081632653061225,5.299319727891157,1.101123595505618,0.14232209737827714,2.292134831460674,0.3037542662116041,1558.0,793.0,644.0,3358.0,2351.0,1007.0,8704.0,33.0,22.0,17.0,17.0,0.0,5.0,,17.0,0.002527573529411765,0.001953125,0.0,0.7727272727272727,0.7727272727272727,0.0,1.0,1.0,17.0,4.25,4.25
96.0,0.6656501119833873,0.7271033649910815,0.9961152,0.99679536,,,,,,,,,,3183.0,8704.0,5.469054351240968,0.0017187474391077836,0.0018075650373806937,0.9531485338294002,-0.13419808617639792,0.0,3.0,-0.13419808617639792,10.247703686454496,2.754797996609062,0.0008581167092023689,294.0,267.0,1558.0,1852.0,0.9081632653061225,5.299319727891157,1.101123595505618,0.14232209737827714,2.292134831460674,0.3037542662116041,1558.0,793.0,644.0,3358.0,2351.0,1007.0,8704.0,33.0,22.0,17.0,17.0,0.0,5.0,,17.0,0.002527573529411765,0.001953125,0.0,0.7727272727272727,0.7727272727272727,0.0,1.0,1.0,17.0,4.25,4.25
